  1   1 0.46
  1   2 0.52
  1   3 0.68
  1   4 0.41
  1   5 0.69
  1   6 0.58
  1   7 0.57
  1   8 0.65
  1   9 0.64
  1  10 0.67
  1  11 0.60
  1  12 0.51
  1  13 0.74
  1  14 0.55
  1  15 0.65
  1  16 0.64
  1  17 0.63
  1  18 0.62
  1  19 0.62
  1  20 0.66
  1  21 0.66
  1  22 0.19
  2   1 0.49
  2   2 0.53
  2   3 0.78
  2   4 0.50
  2   5 0.69
  2   6 0.71
  2   7 0.55
  2   8 0.69
  2   9 0.73
  2  10 0.63
  2  11 0.66
  2  12 0.56
  2  13 0.72
  2  14 0.75
  2  15 0.69
  2  16 0.64
  2  17 0.70
  2  18 0.70
  2  19 0.71
  2  20 0.76
  2  21 0.66
  2  22 0.23
  3   1 0.44
  3   2 0.44
  3   3 0.83
  3   4 0.50
  3   5 0.68
  3   6 0.64
  3   7 0.41
  3   8 0.66
  3   9 0.68
  3  10 0.71
  3  11 0.66
  3  12 0.60
  3  13 0.70
  3  14 0.73
  3  15 0.73
  3  16 0.67
  3  17 0.68
  3  18 0.74
  3  19 0.75
  3  20 0.80
  3  21 0.69
  3  22 0.26
  4   1 0.51
  4   2 0.54
  4   3 0.78
  4   4 0.48
  4   5 0.75
  4   6 0.66
  4   7 0.54
  4   8 0.70
  4   9 0.69
  4  10 0.74
  4  11 0.70
  4  12 0.61
  4  13 0.73
  4  14 0.66
  4  15 0.71
  4  16 0.69
  4  17 0.74
  4  18 0.72
  4  19 0.69
  4  20 0.75
  4  21 0.70
  4  22 0.23
  5   1 0.50
  5   2 0.54
  5   3 0.69
  5   4 0.43
  5   5 0.69
  5   6 0.63
  5   7 0.55
  5   8 0.63
  5   9 0.69
  5  10 0.68
  5  11 0.63
  5  12 0.53
  5  13 0.75
  5  14 0.65
  5  15 0.69
  5  16 0.63
  5  17 0.68
  5  18 0.70
  5  19 0.67
  5  20 0.71
  5  21 0.66
  5  22 0.18
  6   1 0.41
  6   2 0.44
  6   3 0.67
  6   4 0.42
  6   5 0.76
  6   6 0.56
  6   7 0.48
  6   8 0.64
  6   9 0.62
  6  10 0.78
  6  11 0.81
  6  12 0.49
  6  13 0.75
  6  14 0.53
  6  15 0.70
  6  16 0.56
  6  17 0.64
  6  18 0.68
  6  19 0.59
  6  20 0.74
  6  21 0.62
  6  22 0.24
  7   1 0.38
  7   2 0.38
  7   3 0.81
  7   4 0.45
  7   5 0.64
  7   6 0.63
  7   7 0.36
  7   8 0.58
  7   9 0.67
  7  10 0.62
  7  11 0.65
  7  12 0.52
  7  13 0.63
  7  14 0.74
  7  15 0.67
  7  16 0.60
  7  17 0.67
  7  18 0.71
  7  19 0.71
  7  20 0.80
  7  21 0.61
  7  22 0.20
  8   1 0.55
  8   2 0.60
  8   3 0.75
  8   4 0.51
  8   5 0.78
  8   6 0.73
  8   7 0.63
  8   8 0.75
  8   9 0.72
  8  10 0.76
  8  11 0.75
  8  12 0.65
  8  13 0.80
  8  14 0.69
  8  15 0.76
  8  16 0.65
  8  17 0.66
  8  18 0.77
  8  19 0.72
  8  20 0.78
  8  21 0.75
  8  22 0.31
  9   1 0.45
  9   2 0.47
  9   3 0.70
  9   4 0.40
  9   5 0.79
  9   6 0.60
  9   7 0.50
  9   8 0.69
  9   9 0.62
  9  10 0.72
  9  11 0.72
  9  12 0.52
  9  13 0.79
  9  14 0.53
  9  15 0.72
  9  16 0.62
  9  17 0.70
  9  18 0.74
  9  19 0.63
  9  20 0.73
  9  21 0.65
  9  22 0.21
 10   1 0.46
 10   2 0.49
 10   3 0.75
 10   4 0.39
 10   5 0.70
 10   6 0.63
 10   7 0.50
 10   8 0.76
 10   9 0.59
 10  10 0.70
 10  11 0.66
 10  12 0.57
 10  13 0.71
 10  14 0.60
 10  15 0.69
 10  16 0.68
 10  17 0.68
 10  18 0.70
 10  19 0.68
 10  20 0.72
 10  21 0.66
 10  22 0.25
 11   1 0.50
 11   2 0.57
 11   3 0.74
 11   4 0.53
 11   5 0.62
 11   6 0.71
 11   7 0.51
 11   8 0.67
 11   9 0.69
 11  10 0.68
 11  11 0.73
 11  12 0.69
 11  13 0.70
 11  14 0.69
 11  15 0.73
 11  16 0.59
 11  17 0.60
 11  18 0.68
 11  19 0.68
 11  20 0.75
 11  21 0.71
 11  22 0.32
 12   1 0.41
 12   2 0.45
 12   3 0.73
 12   4 0.39
 12   5 0.71
 12   6 0.53
 12   7 0.45
 12   8 0.69
 12   9 0.62
 12  10 0.75
 12  11 0.68
 12  12 0.50
 12  13 0.69
 12  14 0.53
 12  15 0.67
 12  16 0.63
 12  17 0.73
 12  18 0.68
 12  19 0.60
 12  20 0.70
 12  21 0.64
 12  22 0.21
 13   1 0.24
 13   2 0.25
 13   3 0.51
 13   4 0.22
 13   5 0.42
 13   6 0.34
 13   7 0.18
 13   8 0.37
 13   9 0.35
 13  10 0.41
 13  11 0.32
 13  12 0.26
 13  13 0.38
 13  14 0.38
 13  15 0.36
 13  16 0.46
 13  17 0.59
 13  18 0.45
 13  19 0.38
 13  20 0.39
 13  21 0.32
 13  22 0.10
 14   1 0.49
 14   2 0.55
 14   3 0.70
 14   4 0.42
 14   5 0.67
 14   6 0.61
 14   7 0.54
 14   8 0.70
 14   9 0.65
 14  10 0.71
 14  11 0.56
 14  12 0.57
 14  13 0.75
 14  14 0.58
 14  15 0.67
 14  16 0.65
 14  17 0.65
 14  18 0.63
 14  19 0.65
 14  20 0.66
 14  21 0.68
 14  22 0.24
 15   1 0.45
 15   2 0.47
 15   3 0.70
 15   4 0.38
 15   5 0.67
 15   6 0.54
 15   7 0.46
 15   8 0.70
 15   9 0.61
 15  10 0.73
 15  11 0.64
 15  12 0.54
 15  13 0.68
 15  14 0.54
 15  15 0.66
 15  16 0.67
 15  17 0.66
 15  18 0.64
 15  19 0.64
 15  20 0.68
 15  21 0.64
 15  22 0.19
 16   1 0.47
 16   2 0.50
 16   3 0.75
 16   4 0.43
 16   5 0.68
 16   6 0.65
 16   7 0.45
 16   8 0.70
 16   9 0.65
 16  10 0.72
 16  11 0.65
 16  12 0.58
 16  13 0.72
 16  14 0.65
 16  15 0.74
 16  16 0.71
 16  17 0.67
 16  18 0.74
 16  19 0.73
 16  20 0.73
 16  21 0.67
 16  22 0.19
 17   1 0.43
 17   2 0.43
 17   3 0.68
 17   4 0.37
 17   5 0.62
 17   6 0.56
 17   7 0.46
 17   8 0.66
 17   9 0.61
 17  10 0.69
 17  11 0.61
 17  12 0.48
 17  13 0.69
 17  14 0.57
 17  15 0.60
 17  16 0.58
 17  17 0.62
 17  18 0.59
 17  19 0.64
 17  20 0.67
 17  21 0.60
 17  22 0.16
 18   1 0.46
 18   2 0.45
 18   3 0.75
 18   4 0.53
 18   5 0.58
 18   6 0.67
 18   7 0.44
 18   8 0.60
 18   9 0.63
 18  10 0.60
 18  11 0.54
 18  12 0.57
 18  13 0.63
 18  14 0.76
 18  15 0.70
 18  16 0.68
 18  17 0.61
 18  18 0.68
 18  19 0.77
 18  20 0.71
 18  21 0.68
 18  22 0.19
 19   1 0.57
 19   2 0.62
 19   3 0.67
 19   4 0.48
 19   5 0.68
 19   6 0.67
 19   7 0.63
 19   8 0.75
 19   9 0.67
 19  10 0.70
 19  11 0.67
 19  12 0.63
 19  13 0.80
 19  14 0.60
 19  15 0.73
 19  16 0.64
 19  17 0.58
 19  18 0.67
 19  19 0.65
 19  20 0.67
 19  21 0.72
 19  22 0.25
 20   1 0.45
 20   2 0.46
 20   3 0.83
 20   4 0.41
 20   5 0.71
 20   6 0.58
 20   7 0.48
 20   8 0.68
 20   9 0.64
 20  10 0.72
 20  11 0.65
 20  12 0.50
 20  13 0.74
 20  14 0.63
 20  15 0.66
 20  16 0.67
 20  17 0.71
 20  18 0.64
 20  19 0.65
 20  20 0.75
 20  21 0.63
 20  22 0.17
 21   1 0.40
 21   2 0.40
 21   3 0.77
 21   4 0.41
 21   5 0.72
 21   6 0.57
 21   7 0.41
 21   8 0.61
 21   9 0.62
 21  10 0.73
 21  11 0.67
 21  12 0.47
 21  13 0.66
 21  14 0.60
 21  15 0.69
 21  16 0.66
 21  17 0.71
 21  18 0.70
 21  19 0.65
 21  20 0.75
 21  21 0.62
 21  22 0.18
 22   1 0.41
 22   2 0.40
 22   3 0.83
 22   4 0.40
 22   5 0.68
 22   6 0.55
 22   7 0.35
 22   8 0.64
 22   9 0.63
 22  10 0.73
 22  11 0.68
 22  12 0.52
 22  13 0.64
 22  14 0.63
 22  15 0.69
 22  16 0.65
 22  17 0.68
 22  18 0.70
 22  19 0.66
 22  20 0.79
 22  21 0.60
 22  22 0.23
