  1   1 0.45
  1   2 0.41
  1   3 0.67
  1   4 0.32
  1   5 0.56
  1   6 0.63
  1   7 0.57
  1   8 0.59
  1   9 0.66
  1  10 0.69
  1  11 0.64
  1  12 0.56
  1  13 0.72
  1  14 0.40
  1  15 0.72
  1  16 0.56
  1  17 0.54
  1  18 0.63
  1  19 0.59
  1  20 0.71
  1  21 0.64
  1  22 0.48
  2   1 0.50
  2   2 0.59
  2   3 0.74
  2   4 0.41
  2   5 0.70
  2   6 0.69
  2   7 0.59
  2   8 0.62
  2   9 0.70
  2  10 0.64
  2  11 0.61
  2  12 0.66
  2  13 0.76
  2  14 0.54
  2  15 0.68
  2  16 0.60
  2  17 0.67
  2  18 0.61
  2  19 0.65
  2  20 0.56
  2  21 0.57
  2  22 0.54
  3   1 0.45
  3   2 0.47
  3   3 0.71
  3   4 0.34
  3   5 0.64
  3   6 0.64
  3   7 0.44
  3   8 0.57
  3   9 0.62
  3  10 0.71
  3  11 0.60
  3  12 0.63
  3  13 0.57
  3  14 0.53
  3  15 0.74
  3  16 0.69
  3  17 0.60
  3  18 0.69
  3  19 0.67
  3  20 0.72
  3  21 0.66
  3  22 0.52
  4   1 0.38
  4   2 0.36
  4   3 0.65
  4   4 0.26
  4   5 0.53
  4   6 0.52
  4   7 0.39
  4   8 0.49
  4   9 0.62
  4  10 0.56
  4  11 0.65
  4  12 0.54
  4  13 0.59
  4  14 0.38
  4  15 0.63
  4  16 0.57
  4  17 0.51
  4  18 0.58
  4  19 0.52
  4  20 0.69
  4  21 0.56
  4  22 0.38
  5   1 0.48
  5   2 0.53
  5   3 0.78
  5   4 0.33
  5   5 0.68
  5   6 0.72
  5   7 0.53
  5   8 0.64
  5   9 0.70
  5  10 0.76
  5  11 0.65
  5  12 0.71
  5  13 0.69
  5  14 0.55
  5  15 0.81
  5  16 0.68
  5  17 0.66
  5  18 0.75
  5  19 0.76
  5  20 0.76
  5  21 0.72
  5  22 0.53
  6   1 0.37
  6   2 0.35
  6   3 0.64
  6   4 0.29
  6   5 0.48
  6   6 0.51
  6   7 0.35
  6   8 0.41
  6   9 0.62
  6  10 0.58
  6  11 0.61
  6  12 0.46
  6  13 0.57
  6  14 0.33
  6  15 0.58
  6  16 0.50
  6  17 0.46
  6  18 0.54
  6  19 0.48
  6  20 0.61
  6  21 0.48
  6  22 0.39
  7   1 0.42
  7   2 0.48
  7   3 0.81
  7   4 0.30
  7   5 0.68
  7   6 0.60
  7   7 0.37
  7   8 0.50
  7   9 0.67
  7  10 0.70
  7  11 0.72
  7  12 0.68
  7  13 0.55
  7  14 0.53
  7  15 0.76
  7  16 0.71
  7  17 0.67
  7  18 0.63
  7  19 0.70
  7  20 0.72
  7  21 0.65
  7  22 0.52
  8   1 0.53
  8   2 0.56
  8   3 0.73
  8   4 0.38
  8   5 0.72
  8   6 0.72
  8   7 0.48
  8   8 0.59
  8   9 0.67
  8  10 0.69
  8  11 0.66
  8  12 0.73
  8  13 0.66
  8  14 0.58
  8  15 0.72
  8  16 0.75
  8  17 0.70
  8  18 0.64
  8  19 0.69
  8  20 0.61
  8  21 0.66
  8  22 0.61
  9   1 0.44
  9   2 0.40
  9   3 0.79
  9   4 0.34
  9   5 0.62
  9   6 0.59
  9   7 0.44
  9   8 0.57
  9   9 0.74
  9  10 0.69
  9  11 0.67
  9  12 0.61
  9  13 0.62
  9  14 0.40
  9  15 0.77
  9  16 0.58
  9  17 0.55
  9  18 0.62
  9  19 0.66
  9  20 0.73
  9  21 0.63
  9  22 0.50
 10   1 0.49
 10   2 0.47
 10   3 0.75
 10   4 0.31
 10   5 0.64
 10   6 0.68
 10   7 0.46
 10   8 0.59
 10   9 0.67
 10  10 0.73
 10  11 0.66
 10  12 0.67
 10  13 0.61
 10  14 0.48
 10  15 0.79
 10  16 0.67
 10  17 0.62
 10  18 0.69
 10  19 0.72
 10  20 0.72
 10  21 0.74
 10  22 0.54
 11   1 0.51
 11   2 0.47
 11   3 0.71
 11   4 0.36
 11   5 0.62
 11   6 0.69
 11   7 0.49
 11   8 0.59
 11   9 0.67
 11  10 0.71
 11  11 0.61
 11  12 0.66
 11  13 0.66
 11  14 0.46
 11  15 0.75
 11  16 0.63
 11  17 0.60
 11  18 0.66
 11  19 0.66
 11  20 0.68
 11  21 0.70
 11  22 0.56
 12   1 0.40
 12   2 0.41
 12   3 0.75
 12   4 0.30
 12   5 0.64
 12   6 0.58
 12   7 0.45
 12   8 0.53
 12   9 0.64
 12  10 0.67
 12  11 0.73
 12  12 0.63
 12  13 0.60
 12  14 0.48
 12  15 0.69
 12  16 0.70
 12  17 0.60
 12  18 0.64
 12  19 0.62
 12  20 0.64
 12  21 0.59
 12  22 0.47
 13   1 0.50
 13   2 0.54
 13   3 0.50
 13   4 0.33
 13   5 0.62
 13   6 0.58
 13   7 0.27
 13   8 0.40
 13   9 0.59
 13  10 0.67
 13  11 0.43
 13  12 0.61
 13  13 0.47
 13  14 0.57
 13  15 0.66
 13  16 0.55
 13  17 0.57
 13  18 0.48
 13  19 0.63
 13  20 0.54
 13  21 0.53
 13  22 0.63
 14   1 0.50
 14   2 0.52
 14   3 0.76
 14   4 0.37
 14   5 0.66
 14   6 0.67
 14   7 0.45
 14   8 0.51
 14   9 0.65
 14  10 0.68
 14  11 0.66
 14  12 0.67
 14  13 0.65
 14  14 0.52
 14  15 0.66
 14  16 0.68
 14  17 0.63
 14  18 0.60
 14  19 0.63
 14  20 0.58
 14  21 0.57
 14  22 0.51
 15   1 0.51
 15   2 0.46
 15   3 0.74
 15   4 0.33
 15   5 0.66
 15   6 0.66
 15   7 0.44
 15   8 0.56
 15   9 0.66
 15  10 0.70
 15  11 0.68
 15  12 0.66
 15  13 0.61
 15  14 0.49
 15  15 0.71
 15  16 0.65
 15  17 0.58
 15  18 0.63
 15  19 0.64
 15  20 0.70
 15  21 0.63
 15  22 0.55
 16   1 0.42
 16   2 0.43
 16   3 0.72
 16   4 0.27
 16   5 0.62
 16   6 0.64
 16   7 0.45
 16   8 0.58
 16   9 0.63
 16  10 0.69
 16  11 0.67
 16  12 0.65
 16  13 0.63
 16  14 0.48
 16  15 0.77
 16  16 0.65
 16  17 0.61
 16  18 0.73
 16  19 0.71
 16  20 0.73
 16  21 0.70
 16  22 0.45
 17   1 0.38
 17   2 0.43
 17   3 0.68
 17   4 0.29
 17   5 0.63
 17   6 0.60
 17   7 0.54
 17   8 0.60
 17   9 0.63
 17  10 0.57
 17  11 0.72
 17  12 0.63
 17  13 0.69
 17  14 0.46
 17  15 0.63
 17  16 0.63
 17  17 0.61
 17  18 0.61
 17  19 0.60
 17  20 0.57
 17  21 0.56
 17  22 0.42
 18   1 0.35
 18   2 0.49
 18   3 0.76
 18   4 0.28
 18   5 0.75
 18   6 0.58
 18   7 0.32
 18   8 0.51
 18   9 0.70
 18  10 0.64
 18  11 0.68
 18  12 0.71
 18  13 0.50
 18  14 0.60
 18  15 0.75
 18  16 0.66
 18  17 0.73
 18  18 0.67
 18  19 0.74
 18  20 0.68
 18  21 0.60
 18  22 0.54
 19   1 0.53
 19   2 0.63
 19   3 0.72
 19   4 0.45
 19   5 0.76
 19   6 0.68
 19   7 0.55
 19   8 0.62
 19   9 0.73
 19  10 0.68
 19  11 0.64
 19  12 0.71
 19  13 0.71
 19  14 0.58
 19  15 0.68
 19  16 0.60
 19  17 0.66
 19  18 0.66
 19  19 0.65
 19  20 0.57
 19  21 0.56
 19  22 0.56
 20   1 0.35
 20   2 0.44
 20   3 0.76
 20   4 0.27
 20   5 0.66
 20   6 0.59
 20   7 0.45
 20   8 0.61
 20   9 0.69
 20  10 0.65
 20  11 0.68
 20  12 0.64
 20  13 0.58
 20  14 0.51
 20  15 0.77
 20  16 0.58
 20  17 0.62
 20  18 0.70
 20  19 0.73
 20  20 0.76
 20  21 0.66
 20  22 0.50
 21   1 0.30
 21   2 0.41
 21   3 0.79
 21   4 0.23
 21   5 0.62
 21   6 0.48
 21   7 0.28
 21   8 0.47
 21   9 0.63
 21  10 0.55
 21  11 0.72
 21  12 0.60
 21  13 0.45
 21  14 0.47
 21  15 0.70
 21  16 0.58
 21  17 0.61
 21  18 0.58
 21  19 0.64
 21  20 0.66
 21  21 0.56
 21  22 0.42
 22   1 0.37
 22   2 0.47
 22   3 0.70
 22   4 0.31
 22   5 0.59
 22   6 0.52
 22   7 0.40
 22   8 0.53
 22   9 0.57
 22  10 0.52
 22  11 0.66
 22  12 0.53
 22  13 0.49
 22  14 0.44
 22  15 0.61
 22  16 0.63
 22  17 0.55
 22  18 0.53
 22  19 0.54
 22  20 0.56
 22  21 0.61
 22  22 0.41
