  1   1 1.00
  1   2 0.71
  1   3 0.67
  1   4 0.73
  1   5 0.75
  1   6 0.71
  1   7 0.69
  1   8 0.68
  1   9 0.78
  1  10 0.75
  1  11 0.76
  1  12 0.72
  1  13 0.46
  1  14 0.66
  1  15 0.74
  1  16 0.72
  1  17 0.72
  1  18 0.57
  1  19 0.64
  1  20 0.71
  1  21 0.55
  1  22 0.63
  2   1 0.71
  2   2 1.00
  2   3 0.63
  2   4 0.59
  2   5 0.76
  2   6 0.56
  2   7 0.67
  2   8 0.73
  2   9 0.65
  2  10 0.67
  2  11 0.69
  2  12 0.65
  2  13 0.47
  2  14 0.73
  2  15 0.66
  2  16 0.66
  2  17 0.73
  2  18 0.65
  2  19 0.80
  2  20 0.69
  2  21 0.61
  2  22 0.64
  3   1 0.67
  3   2 0.63
  3   3 1.00
  3   4 0.68
  3   5 0.76
  3   6 0.60
  3   7 0.71
  3   8 0.69
  3   9 0.69
  3  10 0.72
  3  11 0.70
  3  12 0.66
  3  13 0.53
  3  14 0.68
  3  15 0.75
  3  16 0.75
  3  17 0.63
  3  18 0.69
  3  19 0.63
  3  20 0.72
  3  21 0.61
  3  22 0.66
  4   1 0.73
  4   2 0.59
  4   3 0.68
  4   4 1.00
  4   5 0.68
  4   6 0.72
  4   7 0.67
  4   8 0.63
  4   9 0.70
  4  10 0.67
  4  11 0.68
  4  12 0.73
  4  13 0.40
  4  14 0.63
  4  15 0.71
  4  16 0.69
  4  17 0.71
  4  18 0.55
  4  19 0.56
  4  20 0.66
  4  21 0.56
  4  22 0.66
  5   1 0.75
  5   2 0.76
  5   3 0.76
  5   4 0.68
  5   5 1.00
  5   6 0.65
  5   7 0.79
  5   8 0.76
  5   9 0.77
  5  10 0.81
  5  11 0.78
  5  12 0.71
  5  13 0.56
  5  14 0.76
  5  15 0.78
  5  16 0.79
  5  17 0.70
  5  18 0.74
  5  19 0.73
  5  20 0.80
  5  21 0.69
  5  22 0.67
  6   1 0.71
  6   2 0.56
  6   3 0.60
  6   4 0.72
  6   5 0.65
  6   6 1.00
  6   7 0.63
  6   8 0.58
  6   9 0.69
  6  10 0.67
  6  11 0.63
  6  12 0.69
  6  13 0.40
  6  14 0.68
  6  15 0.70
  6  16 0.59
  6  17 0.62
  6  18 0.44
  6  19 0.52
  6  20 0.58
  6  21 0.50
  6  22 0.56
  7   1 0.69
  7   2 0.67
  7   3 0.71
  7   4 0.67
  7   5 0.79
  7   6 0.63
  7   7 1.00
  7   8 0.74
  7   9 0.75
  7  10 0.75
  7  11 0.68
  7  12 0.76
  7  13 0.54
  7  14 0.78
  7  15 0.75
  7  16 0.72
  7  17 0.66
  7  18 0.74
  7  19 0.61
  7  20 0.74
  7  21 0.75
  7  22 0.75
  8   1 0.68
  8   2 0.73
  8   3 0.69
  8   4 0.63
  8   5 0.76
  8   6 0.58
  8   7 0.74
  8   8 1.00
  8   9 0.70
  8  10 0.76
  8  11 0.72
  8  12 0.73
  8  13 0.57
  8  14 0.78
  8  15 0.76
  8  16 0.69
  8  17 0.71
  8  18 0.68
  8  19 0.71
  8  20 0.65
  8  21 0.62
  8  22 0.70
  9   1 0.78
  9   2 0.65
  9   3 0.69
  9   4 0.70
  9   5 0.77
  9   6 0.69
  9   7 0.75
  9   8 0.70
  9   9 1.00
  9  10 0.81
  9  11 0.78
  9  12 0.75
  9  13 0.53
  9  14 0.66
  9  15 0.75
  9  16 0.70
  9  17 0.64
  9  18 0.66
  9  19 0.63
  9  20 0.76
  9  21 0.71
  9  22 0.64
 10   1 0.75
 10   2 0.67
 10   3 0.72
 10   4 0.67
 10   5 0.81
 10   6 0.67
 10   7 0.75
 10   8 0.76
 10   9 0.81
 10  10 1.00
 10  11 0.78
 10  12 0.73
 10  13 0.58
 10  14 0.74
 10  15 0.78
 10  16 0.78
 10  17 0.66
 10  18 0.70
 10  19 0.62
 10  20 0.74
 10  21 0.72
 10  22 0.68
 11   1 0.76
 11   2 0.69
 11   3 0.70
 11   4 0.68
 11   5 0.78
 11   6 0.63
 11   7 0.68
 11   8 0.72
 11   9 0.78
 11  10 0.78
 11  11 1.00
 11  12 0.68
 11  13 0.56
 11  14 0.68
 11  15 0.74
 11  16 0.70
 11  17 0.65
 11  18 0.63
 11  19 0.65
 11  20 0.69
 11  21 0.59
 11  22 0.61
 12   1 0.72
 12   2 0.65
 12   3 0.66
 12   4 0.73
 12   5 0.71
 12   6 0.69
 12   7 0.76
 12   8 0.73
 12   9 0.75
 12  10 0.73
 12  11 0.68
 12  12 1.00
 12  13 0.47
 12  14 0.70
 12  15 0.72
 12  16 0.69
 12  17 0.75
 12  18 0.61
 12  19 0.62
 12  20 0.64
 12  21 0.64
 12  22 0.66
 13   1 0.46
 13   2 0.47
 13   3 0.53
 13   4 0.40
 13   5 0.56
 13   6 0.40
 13   7 0.54
 13   8 0.57
 13   9 0.53
 13  10 0.58
 13  11 0.56
 13  12 0.47
 13  13 1.00
 13  14 0.52
 13  15 0.56
 13  16 0.48
 13  17 0.39
 13  18 0.53
 13  19 0.53
 13  20 0.48
 13  21 0.45
 13  22 0.40
 14   1 0.66
 14   2 0.73
 14   3 0.68
 14   4 0.63
 14   5 0.76
 14   6 0.68
 14   7 0.78
 14   8 0.78
 14   9 0.66
 14  10 0.74
 14  11 0.68
 14  12 0.70
 14  13 0.52
 14  14 1.00
 14  15 0.79
 14  16 0.68
 14  17 0.68
 14  18 0.64
 14  19 0.66
 14  20 0.64
 14  21 0.63
 14  22 0.74
 15   1 0.74
 15   2 0.66
 15   3 0.75
 15   4 0.71
 15   5 0.78
 15   6 0.70
 15   7 0.75
 15   8 0.76
 15   9 0.75
 15  10 0.78
 15  11 0.74
 15  12 0.72
 15  13 0.56
 15  14 0.79
 15  15 1.00
 15  16 0.72
 15  17 0.67
 15  18 0.64
 15  19 0.65
 15  20 0.73
 15  21 0.64
 15  22 0.71
 16   1 0.72
 16   2 0.66
 16   3 0.75
 16   4 0.69
 16   5 0.79
 16   6 0.59
 16   7 0.72
 16   8 0.69
 16   9 0.70
 16  10 0.78
 16  11 0.70
 16  12 0.69
 16  13 0.48
 16  14 0.68
 16  15 0.72
 16  16 1.00
 16  17 0.71
 16  18 0.73
 16  19 0.66
 16  20 0.75
 16  21 0.68
 16  22 0.66
 17   1 0.72
 17   2 0.73
 17   3 0.63
 17   4 0.71
 17   5 0.70
 17   6 0.62
 17   7 0.66
 17   8 0.71
 17   9 0.64
 17  10 0.66
 17  11 0.65
 17  12 0.75
 17  13 0.39
 17  14 0.68
 17  15 0.67
 17  16 0.71
 17  17 1.00
 17  18 0.59
 17  19 0.70
 17  20 0.69
 17  21 0.58
 17  22 0.65
 18   1 0.57
 18   2 0.65
 18   3 0.69
 18   4 0.55
 18   5 0.74
 18   6 0.44
 18   7 0.74
 18   8 0.68
 18   9 0.66
 18  10 0.70
 18  11 0.63
 18  12 0.61
 18  13 0.53
 18  14 0.64
 18  15 0.64
 18  16 0.73
 18  17 0.59
 18  18 1.00
 18  19 0.67
 18  20 0.76
 18  21 0.76
 18  22 0.60
 19   1 0.64
 19   2 0.80
 19   3 0.63
 19   4 0.56
 19   5 0.73
 19   6 0.52
 19   7 0.61
 19   8 0.71
 19   9 0.63
 19  10 0.62
 19  11 0.65
 19  12 0.62
 19  13 0.53
 19  14 0.66
 19  15 0.65
 19  16 0.66
 19  17 0.70
 19  18 0.67
 19  19 1.00
 19  20 0.67
 19  21 0.57
 19  22 0.56
 20   1 0.71
 20   2 0.69
 20   3 0.72
 20   4 0.66
 20   5 0.80
 20   6 0.58
 20   7 0.74
 20   8 0.65
 20   9 0.76
 20  10 0.74
 20  11 0.69
 20  12 0.64
 20  13 0.48
 20  14 0.64
 20  15 0.73
 20  16 0.75
 20  17 0.69
 20  18 0.76
 20  19 0.67
 20  20 1.00
 20  21 0.75
 20  22 0.67
 21   1 0.55
 21   2 0.61
 21   3 0.61
 21   4 0.56
 21   5 0.69
 21   6 0.50
 21   7 0.75
 21   8 0.62
 21   9 0.71
 21  10 0.72
 21  11 0.59
 21  12 0.64
 21  13 0.45
 21  14 0.63
 21  15 0.64
 21  16 0.68
 21  17 0.58
 21  18 0.76
 21  19 0.57
 21  20 0.75
 21  21 1.00
 21  22 0.67
 22   1 0.63
 22   2 0.64
 22   3 0.66
 22   4 0.66
 22   5 0.67
 22   6 0.56
 22   7 0.75
 22   8 0.70
 22   9 0.64
 22  10 0.68
 22  11 0.61
 22  12 0.66
 22  13 0.40
 22  14 0.74
 22  15 0.71
 22  16 0.66
 22  17 0.65
 22  18 0.60
 22  19 0.56
 22  20 0.67
 22  21 0.67
 22  22 1.00
