  1   1 0.94
  1   2 0.70
  1   3 0.44
  1   4 0.59
  1   5 0.43
  1   6 0.61
  1   7 0.63
  1   8 0.54
  1   9 0.55
  1  10 0.55
  1  11 0.39
  1  12 0.68
  1  13 0.59
  1  14 0.52
  1  15 0.51
  1  16 0.53
  1  17 0.49
  1  18 0.56
  1  19 0.57
  1  20 0.42
  1  21 0.56
  1  22 0.48
  2   1 0.69
  2   2 0.91
  2   3 0.44
  2   4 0.53
  2   5 0.43
  2   6 0.66
  2   7 0.62
  2   8 0.59
  2   9 0.56
  2  10 0.57
  2  11 0.40
  2  12 0.68
  2  13 0.63
  2  14 0.55
  2  15 0.54
  2  16 0.52
  2  17 0.46
  2  18 0.56
  2  19 0.61
  2  20 0.42
  2  21 0.58
  2  22 0.39
  3   1 0.48
  3   2 0.52
  3   3 0.88
  3   4 0.62
  3   5 0.82
  3   6 0.71
  3   7 0.41
  3   8 0.74
  3   9 0.71
  3  10 0.73
  3  11 0.69
  3  12 0.62
  3  13 0.68
  3  14 0.78
  3  15 0.82
  3  16 0.70
  3  17 0.73
  3  18 0.71
  3  19 0.76
  3  20 0.79
  3  21 0.82
  3  22 0.36
  4   1 0.75
  4   2 0.68
  4   3 0.47
  4   4 0.82
  4   5 0.48
  4   6 0.65
  4   7 0.62
  4   8 0.49
  4   9 0.66
  4  10 0.53
  4  11 0.44
  4  12 0.71
  4  13 0.63
  4  14 0.63
  4  15 0.56
  4  16 0.49
  4  17 0.43
  4  18 0.60
  4  19 0.67
  4  20 0.48
  4  21 0.58
  4  22 0.54
  5   1 0.50
  5   2 0.58
  5   3 0.70
  5   4 0.51
  5   5 0.88
  5   6 0.71
  5   7 0.55
  5   8 0.67
  5   9 0.61
  5  10 0.77
  5  11 0.68
  5  12 0.64
  5  13 0.72
  5  14 0.57
  5  15 0.78
  5  16 0.60
  5  17 0.74
  5  18 0.75
  5  19 0.63
  5  20 0.67
  5  21 0.69
  5  22 0.26
  6   1 0.66
  6   2 0.77
  6   3 0.62
  6   4 0.65
  6   5 0.59
  6   6 0.90
  6   7 0.65
  6   8 0.66
  6   9 0.67
  6  10 0.65
  6  11 0.57
  6  12 0.69
  6  13 0.71
  6  14 0.70
  6  15 0.69
  6  16 0.63
  6  17 0.64
  6  18 0.71
  6  19 0.77
  6  20 0.60
  6  21 0.71
  6  22 0.43
  7   1 0.62
  7   2 0.71
  7   3 0.53
  7   4 0.50
  7   5 0.45
  7   6 0.69
  7   7 0.90
  7   8 0.68
  7   9 0.50
  7  10 0.51
  7  11 0.41
  7  12 0.66
  7  13 0.61
  7  14 0.42
  7  15 0.50
  7  16 0.58
  7  17 0.45
  7  18 0.60
  7  19 0.52
  7  20 0.44
  7  21 0.56
  7  22 0.37
  8   1 0.52
  8   2 0.64
  8   3 0.72
  8   4 0.50
  8   5 0.64
  8   6 0.68
  8   7 0.54
  8   8 0.86
  8   9 0.59
  8  10 0.69
  8  11 0.59
  8  12 0.65
  8  13 0.69
  8  14 0.54
  8  15 0.72
  8  16 0.67
  8  17 0.63
  8  18 0.69
  8  19 0.62
  8  20 0.62
  8  21 0.74
  8  22 0.35
  9   1 0.61
  9   2 0.62
  9   3 0.65
  9   4 0.68
  9   5 0.64
  9   6 0.73
  9   7 0.49
  9   8 0.65
  9   9 0.93
  9  10 0.64
  9  11 0.63
  9  12 0.68
  9  13 0.78
  9  14 0.77
  9  15 0.67
  9  16 0.54
  9  17 0.66
  9  18 0.71
  9  19 0.71
  9  20 0.72
  9  21 0.66
  9  22 0.44
 10   1 0.54
 10   2 0.56
 10   3 0.72
 10   4 0.52
 10   5 0.73
 10   6 0.65
 10   7 0.46
 10   8 0.70
 10   9 0.62
 10  10 0.96
 10  11 0.66
 10  12 0.67
 10  13 0.69
 10  14 0.55
 10  15 0.83
 10  16 0.64
 10  17 0.67
 10  18 0.76
 10  19 0.65
 10  20 0.70
 10  21 0.70
 10  22 0.36
 11   1 0.48
 11   2 0.51
 11   3 0.70
 11   4 0.48
 11   5 0.71
 11   6 0.66
 11   7 0.45
 11   8 0.60
 11   9 0.72
 11  10 0.68
 11  11 0.96
 11  12 0.61
 11  13 0.76
 11  14 0.61
 11  15 0.70
 11  16 0.51
 11  17 0.72
 11  18 0.72
 11  19 0.64
 11  20 0.79
 11  21 0.65
 11  22 0.42
 12   1 0.70
 12   2 0.73
 12   3 0.52
 12   4 0.64
 12   5 0.50
 12   6 0.70
 12   7 0.57
 12   8 0.56
 12   9 0.68
 12  10 0.65
 12  11 0.53
 12  12 0.89
 12  13 0.73
 12  14 0.70
 12  15 0.66
 12  16 0.59
 12  17 0.50
 12  18 0.64
 12  19 0.73
 12  20 0.56
 12  21 0.66
 12  22 0.49
 13   1 0.59
 13   2 0.65
 13   3 0.70
 13   4 0.59
 13   5 0.66
 13   6 0.77
 13   7 0.60
 13   8 0.71
 13   9 0.71
 13  10 0.75
 13  11 0.69
 13  12 0.73
 13  13 0.89
 13  14 0.61
 13  15 0.75
 13  16 0.63
 13  17 0.73
 13  18 0.75
 13  19 0.66
 13  20 0.68
 13  21 0.73
 13  22 0.38
 14   1 0.61
 14   2 0.62
 14   3 0.69
 14   4 0.71
 14   5 0.63
 14   6 0.74
 14   7 0.52
 14   8 0.65
 14   9 0.72
 14  10 0.63
 14  11 0.57
 14  12 0.70
 14  13 0.67
 14  14 0.90
 14  15 0.74
 14  16 0.63
 14  17 0.60
 14  18 0.72
 14  19 0.81
 14  20 0.70
 14  21 0.73
 14  22 0.38
 15   1 0.61
 15   2 0.69
 15   3 0.72
 15   4 0.61
 15   5 0.70
 15   6 0.75
 15   7 0.58
 15   8 0.73
 15   9 0.66
 15  10 0.79
 15  11 0.64
 15  12 0.75
 15  13 0.74
 15  14 0.67
 15  15 0.93
 15  16 0.68
 15  17 0.70
 15  18 0.81
 15  19 0.80
 15  20 0.70
 15  21 0.78
 15  22 0.37
 16   1 0.57
 16   2 0.57
 16   3 0.66
 16   4 0.52
 16   5 0.60
 16   6 0.63
 16   7 0.51
 16   8 0.71
 16   9 0.54
 16  10 0.68
 16  11 0.47
 16  12 0.68
 16  13 0.61
 16  14 0.59
 16  15 0.73
 16  16 0.92
 16  17 0.61
 16  18 0.67
 16  19 0.66
 16  20 0.57
 16  21 0.78
 16  22 0.34
 17   1 0.45
 17   2 0.45
 17   3 0.65
 17   4 0.46
 17   5 0.71
 17   6 0.62
 17   7 0.39
 17   8 0.61
 17   9 0.60
 17  10 0.63
 17  11 0.64
 17  12 0.53
 17  13 0.62
 17  14 0.57
 17  15 0.67
 17  16 0.62
 17  17 0.91
 17  18 0.66
 17  19 0.58
 17  20 0.66
 17  21 0.72
 17  22 0.27
 18   1 0.57
 18   2 0.60
 18   3 0.69
 18   4 0.57
 18   5 0.72
 18   6 0.73
 18   7 0.58
 18   8 0.71
 18   9 0.65
 18  10 0.76
 18  11 0.69
 18  12 0.73
 18  13 0.76
 18  14 0.63
 18  15 0.84
 18  16 0.67
 18  17 0.73
 18  18 0.91
 18  19 0.74
 18  20 0.70
 18  21 0.76
 18  22 0.36
 19   1 0.62
 19   2 0.68
 19   3 0.71
 19   4 0.67
 19   5 0.66
 19   6 0.78
 19   7 0.58
 19   8 0.74
 19   9 0.65
 19  10 0.71
 19  11 0.56
 19  12 0.71
 19  13 0.68
 19  14 0.73
 19  15 0.82
 19  16 0.68
 19  17 0.63
 19  18 0.76
 19  19 0.90
 19  20 0.65
 19  21 0.77
 19  22 0.36
 20   1 0.48
 20   2 0.49
 20   3 0.79
 20   4 0.59
 20   5 0.75
 20   6 0.71
 20   7 0.44
 20   8 0.68
 20   9 0.73
 20  10 0.74
 20  11 0.76
 20  12 0.61
 20  13 0.71
 20  14 0.74
 20  15 0.79
 20  16 0.62
 20  17 0.73
 20  18 0.78
 20  19 0.74
 20  20 0.94
 20  21 0.76
 20  22 0.38
 21   1 0.67
 21   2 0.74
 21   3 0.68
 21   4 0.66
 21   5 0.62
 21   6 0.77
 21   7 0.65
 21   8 0.73
 21   9 0.67
 21  10 0.74
 21  11 0.61
 21  12 0.80
 21  13 0.74
 21  14 0.67
 21  15 0.78
 21  16 0.71
 21  17 0.64
 21  18 0.75
 21  19 0.77
 21  20 0.65
 21  21 0.87
 21  22 0.44
 22   1 0.50
 22   2 0.40
 22   3 0.22
 22   4 0.26
 22   5 0.23
 22   6 0.30
 22   7 0.27
 22   8 0.24
 22   9 0.34
 22  10 0.31
 22  11 0.31
 22  12 0.35
 22  13 0.33
 22  14 0.28
 22  15 0.28
 22  16 0.27
 22  17 0.18
 22  18 0.27
 22  19 0.30
 22  20 0.25
 22  21 0.31
 22  22 0.82
