  1   1 1.00
  1   2 0.68
  1   3 0.45
  1   4 0.72
  1   5 0.50
  1   6 0.65
  1   7 0.63
  1   8 0.53
  1   9 0.58
  1  10 0.52
  1  11 0.43
  1  12 0.68
  1  13 0.59
  1  14 0.59
  1  15 0.59
  1  16 0.57
  1  17 0.46
  1  18 0.57
  1  19 0.61
  1  20 0.45
  1  21 0.66
  1  22 0.47
  2   1 0.68
  2   2 1.00
  2   3 0.46
  2   4 0.64
  2   5 0.52
  2   6 0.70
  2   7 0.68
  2   8 0.60
  2   9 0.59
  2  10 0.53
  2  11 0.45
  2  12 0.73
  2  13 0.63
  2  14 0.60
  2  15 0.64
  2  16 0.55
  2  17 0.42
  2  18 0.55
  2  19 0.64
  2  20 0.44
  2  21 0.69
  2  22 0.35
  3   1 0.45
  3   2 0.46
  3   3 1.00
  3   4 0.50
  3   5 0.74
  3   6 0.63
  3   7 0.45
  3   8 0.68
  3   9 0.69
  3  10 0.73
  3  11 0.68
  3  12 0.59
  3  13 0.71
  3  14 0.76
  3  15 0.74
  3  16 0.71
  3  17 0.73
  3  18 0.73
  3  19 0.75
  3  20 0.83
  3  21 0.69
  3  22 0.24
  4   1 0.72
  4   2 0.64
  4   3 0.50
  4   4 1.00
  4   5 0.51
  4   6 0.68
  4   7 0.58
  4   8 0.46
  4   9 0.65
  4  10 0.51
  4  11 0.47
  4  12 0.72
  4  13 0.57
  4  14 0.69
  4  15 0.61
  4  16 0.52
  4  17 0.40
  4  18 0.60
  4  19 0.66
  4  20 0.51
  4  21 0.68
  4  22 0.44
  5   1 0.50
  5   2 0.52
  5   3 0.74
  5   4 0.51
  5   5 1.00
  5   6 0.66
  5   7 0.56
  5   8 0.68
  5   9 0.63
  5  10 0.75
  5  11 0.68
  5  12 0.56
  5  13 0.75
  5  14 0.62
  5  15 0.77
  5  16 0.66
  5  17 0.68
  5  18 0.77
  5  19 0.68
  5  20 0.71
  5  21 0.68
  5  22 0.21
  6   1 0.65
  6   2 0.70
  6   3 0.63
  6   4 0.68
  6   5 0.66
  6   6 1.00
  6   7 0.68
  6   8 0.66
  6   9 0.67
  6  10 0.63
  6  11 0.61
  6  12 0.72
  6  13 0.74
  6  14 0.75
  6  15 0.75
  6  16 0.63
  6  17 0.58
  6  18 0.73
  6  19 0.79
  6  20 0.66
  6  21 0.77
  6  22 0.32
  7   1 0.63
  7   2 0.68
  7   3 0.45
  7   4 0.58
  7   5 0.56
  7   6 0.68
  7   7 1.00
  7   8 0.65
  7   9 0.50
  7  10 0.50
  7  11 0.49
  7  12 0.59
  7  13 0.62
  7  14 0.52
  7  15 0.61
  7  16 0.54
  7  17 0.40
  7  18 0.58
  7  19 0.60
  7  20 0.45
  7  21 0.69
  7  22 0.29
  8   1 0.53
  8   2 0.60
  8   3 0.68
  8   4 0.46
  8   5 0.68
  8   6 0.66
  8   7 0.65
  8   8 1.00
  8   9 0.58
  8  10 0.70
  8  11 0.63
  8  12 0.60
  8  13 0.75
  8  14 0.59
  8  15 0.73
  8  16 0.68
  8  17 0.60
  8  18 0.71
  8  19 0.69
  8  20 0.66
  8  21 0.75
  8  22 0.26
  9   1 0.58
  9   2 0.59
  9   3 0.69
  9   4 0.65
  9   5 0.63
  9   6 0.67
  9   7 0.50
  9   8 0.58
  9   9 1.00
  9  10 0.62
  9  11 0.67
  9  12 0.70
  9  13 0.73
  9  14 0.72
  9  15 0.68
  9  16 0.57
  9  17 0.61
  9  18 0.67
  9  19 0.65
  9  20 0.72
  9  21 0.67
  9  22 0.31
 10   1 0.52
 10   2 0.53
 10   3 0.73
 10   4 0.51
 10   5 0.75
 10   6 0.63
 10   7 0.50
 10   8 0.70
 10   9 0.62
 10  10 1.00
 10  11 0.70
 10  12 0.62
 10  13 0.77
 10  14 0.61
 10  15 0.78
 10  16 0.68
 10  17 0.65
 10  18 0.77
 10  19 0.69
 10  20 0.75
 10  21 0.72
 10  22 0.30
 11   1 0.43
 11   2 0.45
 11   3 0.68
 11   4 0.47
 11   5 0.68
 11   6 0.61
 11   7 0.49
 11   8 0.63
 11   9 0.67
 11  10 0.70
 11  11 1.00
 11  12 0.57
 11  13 0.72
 11  14 0.60
 11  15 0.68
 11  16 0.51
 11  17 0.63
 11  18 0.70
 11  19 0.59
 11  20 0.77
 11  21 0.66
 11  22 0.33
 12   1 0.68
 12   2 0.73
 12   3 0.59
 12   4 0.72
 12   5 0.56
 12   6 0.72
 12   7 0.59
 12   8 0.60
 12   9 0.70
 12  10 0.62
 12  11 0.57
 12  12 1.00
 12  13 0.67
 12  14 0.73
 12  15 0.72
 12  16 0.64
 12  17 0.49
 12  18 0.66
 12  19 0.72
 12  20 0.58
 12  21 0.76
 12  22 0.40
 13   1 0.59
 13   2 0.63
 13   3 0.71
 13   4 0.57
 13   5 0.75
 13   6 0.74
 13   7 0.62
 13   8 0.75
 13   9 0.73
 13  10 0.77
 13  11 0.72
 13  12 0.67
 13  13 1.00
 13  14 0.65
 13  15 0.78
 13  16 0.66
 13  17 0.67
 13  18 0.78
 13  19 0.72
 13  20 0.73
 13  21 0.76
 13  22 0.28
 14   1 0.59
 14   2 0.60
 14   3 0.76
 14   4 0.69
 14   5 0.62
 14   6 0.75
 14   7 0.52
 14   8 0.59
 14   9 0.72
 14  10 0.61
 14  11 0.60
 14  12 0.73
 14  13 0.65
 14  14 1.00
 14  15 0.73
 14  16 0.66
 14  17 0.57
 14  18 0.71
 14  19 0.79
 14  20 0.74
 14  21 0.72
 14  22 0.28
 15   1 0.59
 15   2 0.64
 15   3 0.74
 15   4 0.61
 15   5 0.77
 15   6 0.75
 15   7 0.61
 15   8 0.73
 15   9 0.68
 15  10 0.78
 15  11 0.68
 15  12 0.72
 15  13 0.78
 15  14 0.73
 15  15 1.00
 15  16 0.73
 15  17 0.65
 15  18 0.84
 15  19 0.83
 15  20 0.75
 15  21 0.83
 15  22 0.29
 16   1 0.57
 16   2 0.55
 16   3 0.71
 16   4 0.52
 16   5 0.66
 16   6 0.63
 16   7 0.54
 16   8 0.68
 16   9 0.57
 16  10 0.68
 16  11 0.51
 16  12 0.64
 16  13 0.66
 16  14 0.66
 16  15 0.73
 16  16 1.00
 16  17 0.65
 16  18 0.72
 16  19 0.72
 16  20 0.62
 16  21 0.74
 16  22 0.25
 17   1 0.46
 17   2 0.42
 17   3 0.73
 17   4 0.40
 17   5 0.68
 17   6 0.58
 17   7 0.40
 17   8 0.60
 17   9 0.61
 17  10 0.65
 17  11 0.63
 17  12 0.49
 17  13 0.67
 17  14 0.57
 17  15 0.65
 17  16 0.65
 17  17 1.00
 17  18 0.68
 17  19 0.61
 17  20 0.69
 17  21 0.61
 17  22 0.18
 18   1 0.57
 18   2 0.55
 18   3 0.73
 18   4 0.60
 18   5 0.77
 18   6 0.73
 18   7 0.58
 18   8 0.71
 18   9 0.67
 18  10 0.77
 18  11 0.70
 18  12 0.66
 18  13 0.78
 18  14 0.71
 18  15 0.84
 18  16 0.72
 18  17 0.68
 18  18 1.00
 18  19 0.78
 18  20 0.77
 18  21 0.76
 18  22 0.29
 19   1 0.61
 19   2 0.64
 19   3 0.75
 19   4 0.66
 19   5 0.68
 19   6 0.79
 19   7 0.60
 19   8 0.69
 19   9 0.65
 19  10 0.69
 19  11 0.59
 19  12 0.72
 19  13 0.72
 19  14 0.79
 19  15 0.83
 19  16 0.72
 19  17 0.61
 19  18 0.78
 19  19 1.00
 19  20 0.71
 19  21 0.80
 19  22 0.28
 20   1 0.45
 20   2 0.44
 20   3 0.83
 20   4 0.51
 20   5 0.71
 20   6 0.66
 20   7 0.45
 20   8 0.66
 20   9 0.72
 20  10 0.75
 20  11 0.77
 20  12 0.58
 20  13 0.73
 20  14 0.74
 20  15 0.75
 20  16 0.62
 20  17 0.69
 20  18 0.77
 20  19 0.71
 20  20 1.00
 20  21 0.69
 20  22 0.27
 21   1 0.66
 21   2 0.69
 21   3 0.69
 21   4 0.68
 21   5 0.68
 21   6 0.77
 21   7 0.69
 21   8 0.75
 21   9 0.67
 21  10 0.72
 21  11 0.66
 21  12 0.76
 21  13 0.76
 21  14 0.72
 21  15 0.83
 21  16 0.74
 21  17 0.61
 21  18 0.76
 21  19 0.80
 21  20 0.69
 21  21 1.00
 21  22 0.36
 22   1 0.47
 22   2 0.35
 22   3 0.24
 22   4 0.44
 22   5 0.21
 22   6 0.32
 22   7 0.29
 22   8 0.26
 22   9 0.31
 22  10 0.30
 22  11 0.33
 22  12 0.40
 22  13 0.28
 22  14 0.28
 22  15 0.29
 22  16 0.25
 22  17 0.18
 22  18 0.29
 22  19 0.28
 22  20 0.27
 22  21 0.36
 22  22 1.00
