  1   1 0.47
  1   2 0.52
  1   3 0.68
  1   4 0.48
  1   5 0.60
  1   6 0.66
  1   7 0.53
  1   8 0.70
  1   9 0.60
  1  10 0.67
  1  11 0.54
  1  12 0.56
  1  13 0.70
  1  14 0.54
  1  15 0.64
  1  16 0.60
  1  17 0.65
  1  18 0.64
  1  19 0.57
  1  20 0.65
  1  21 0.66
  1  22 0.25
  2   1 0.51
  2   2 0.57
  2   3 0.76
  2   4 0.58
  2   5 0.71
  2   6 0.77
  2   7 0.50
  2   8 0.74
  2   9 0.71
  2  10 0.64
  2  11 0.65
  2  12 0.58
  2  13 0.70
  2  14 0.77
  2  15 0.71
  2  16 0.62
  2  17 0.73
  2  18 0.70
  2  19 0.70
  2  20 0.72
  2  21 0.73
  2  22 0.34
  3   1 0.46
  3   2 0.50
  3   3 0.75
  3   4 0.59
  3   5 0.73
  3   6 0.69
  3   7 0.39
  3   8 0.69
  3   9 0.68
  3  10 0.70
  3  11 0.66
  3  12 0.58
  3  13 0.67
  3  14 0.74
  3  15 0.79
  3  16 0.65
  3  17 0.66
  3  18 0.71
  3  19 0.78
  3  20 0.73
  3  21 0.78
  3  22 0.34
  4   1 0.53
  4   2 0.56
  4   3 0.72
  4   4 0.52
  4   5 0.76
  4   6 0.72
  4   7 0.50
  4   8 0.71
  4   9 0.67
  4  10 0.75
  4  11 0.68
  4  12 0.63
  4  13 0.72
  4  14 0.67
  4  15 0.76
  4  16 0.68
  4  17 0.75
  4  18 0.74
  4  19 0.69
  4  20 0.72
  4  21 0.75
  4  22 0.31
  5   1 0.51
  5   2 0.52
  5   3 0.68
  5   4 0.48
  5   5 0.64
  5   6 0.70
  5   7 0.54
  5   8 0.69
  5   9 0.62
  5  10 0.68
  5  11 0.59
  5  12 0.59
  5  13 0.69
  5  14 0.62
  5  15 0.69
  5  16 0.63
  5  17 0.72
  5  18 0.74
  5  19 0.63
  5  20 0.68
  5  21 0.69
  5  22 0.25
  6   1 0.44
  6   2 0.48
  6   3 0.71
  6   4 0.44
  6   5 0.71
  6   6 0.62
  6   7 0.46
  6   8 0.64
  6   9 0.62
  6  10 0.75
  6  11 0.78
  6  12 0.57
  6  13 0.72
  6  14 0.52
  6  15 0.71
  6  16 0.52
  6  17 0.71
  6  18 0.70
  6  19 0.58
  6  20 0.75
  6  21 0.61
  6  22 0.31
  7   1 0.40
  7   2 0.44
  7   3 0.74
  7   4 0.54
  7   5 0.74
  7   6 0.67
  7   7 0.35
  7   8 0.65
  7   9 0.66
  7  10 0.63
  7  11 0.66
  7  12 0.52
  7  13 0.62
  7  14 0.78
  7  15 0.77
  7  16 0.60
  7  17 0.69
  7  18 0.69
  7  19 0.76
  7  20 0.76
  7  21 0.74
  7  22 0.30
  8   1 0.55
  8   2 0.64
  8   3 0.73
  8   4 0.53
  8   5 0.75
  8   6 0.76
  8   7 0.57
  8   8 0.74
  8   9 0.70
  8  10 0.77
  8  11 0.70
  8  12 0.68
  8  13 0.77
  8  14 0.66
  8  15 0.76
  8  16 0.64
  8  17 0.72
  8  18 0.77
  8  19 0.70
  8  20 0.73
  8  21 0.73
  8  22 0.36
  9   1 0.46
  9   2 0.51
  9   3 0.71
  9   4 0.45
  9   5 0.69
  9   6 0.66
  9   7 0.50
  9   8 0.67
  9   9 0.60
  9  10 0.71
  9  11 0.69
  9  12 0.60
  9  13 0.75
  9  14 0.52
  9  15 0.72
  9  16 0.57
  9  17 0.76
  9  18 0.70
  9  19 0.60
  9  20 0.69
  9  21 0.68
  9  22 0.26
 10   1 0.45
 10   2 0.52
 10   3 0.72
 10   4 0.42
 10   5 0.70
 10   6 0.65
 10   7 0.44
 10   8 0.71
 10   9 0.58
 10  10 0.69
 10  11 0.64
 10  12 0.59
 10  13 0.68
 10  14 0.59
 10  15 0.72
 10  16 0.65
 10  17 0.71
 10  18 0.68
 10  19 0.64
 10  20 0.67
 10  21 0.71
 10  22 0.30
 11   1 0.55
 11   2 0.60
 11   3 0.71
 11   4 0.57
 11   5 0.63
 11   6 0.75
 11   7 0.45
 11   8 0.64
 11   9 0.71
 11  10 0.69
 11  11 0.69
 11  12 0.65
 11  13 0.69
 11  14 0.71
 11  15 0.73
 11  16 0.60
 11  17 0.63
 11  18 0.71
 11  19 0.73
 11  20 0.73
 11  21 0.72
 11  22 0.45
 12   1 0.42
 12   2 0.49
 12   3 0.70
 12   4 0.44
 12   5 0.75
 12   6 0.57
 12   7 0.40
 12   8 0.72
 12   9 0.62
 12  10 0.75
 12  11 0.68
 12  12 0.54
 12  13 0.65
 12  14 0.54
 12  15 0.72
 12  16 0.61
 12  17 0.71
 12  18 0.68
 12  19 0.61
 12  20 0.68
 12  21 0.69
 12  22 0.29
 13   1 0.24
 13   2 0.26
 13   3 0.37
 13   4 0.29
 13   5 0.52
 13   6 0.35
 13   7 0.18
 13   8 0.39
 13   9 0.34
 13  10 0.40
 13  11 0.36
 13  12 0.25
 13  13 0.32
 13  14 0.41
 13  15 0.45
 13  16 0.44
 13  17 0.49
 13  18 0.42
 13  19 0.37
 13  20 0.34
 13  21 0.49
 13  22 0.12
 14   1 0.50
 14   2 0.58
 14   3 0.68
 14   4 0.48
 14   5 0.62
 14   6 0.65
 14   7 0.49
 14   8 0.74
 14   9 0.62
 14  10 0.71
 14  11 0.51
 14  12 0.60
 14  13 0.66
 14  14 0.56
 14  15 0.68
 14  16 0.64
 14  17 0.64
 14  18 0.62
 14  19 0.60
 14  20 0.64
 14  21 0.70
 14  22 0.29
 15   1 0.45
 15   2 0.48
 15   3 0.69
 15   4 0.43
 15   5 0.67
 15   6 0.58
 15   7 0.40
 15   8 0.68
 15   9 0.59
 15  10 0.72
 15  11 0.60
 15  12 0.58
 15  13 0.66
 15  14 0.54
 15  15 0.71
 15  16 0.62
 15  17 0.66
 15  18 0.66
 15  19 0.61
 15  20 0.65
 15  21 0.67
 15  22 0.26
 16   1 0.48
 16   2 0.53
 16   3 0.72
 16   4 0.51
 16   5 0.72
 16   6 0.67
 16   7 0.42
 16   8 0.72
 16   9 0.63
 16  10 0.73
 16  11 0.65
 16  12 0.60
 16  13 0.67
 16  14 0.65
 16  15 0.78
 16  16 0.68
 16  17 0.69
 16  18 0.73
 16  19 0.72
 16  20 0.68
 16  21 0.73
 16  22 0.28
 17   1 0.41
 17   2 0.45
 17   3 0.69
 17   4 0.50
 17   5 0.64
 17   6 0.63
 17   7 0.39
 17   8 0.67
 17   9 0.60
 17  10 0.67
 17  11 0.57
 17  12 0.50
 17  13 0.63
 17  14 0.57
 17  15 0.64
 17  16 0.55
 17  17 0.61
 17  18 0.61
 17  19 0.61
 17  20 0.64
 17  21 0.62
 17  22 0.24
 18   1 0.47
 18   2 0.51
 18   3 0.69
 18   4 0.67
 18   5 0.62
 18   6 0.70
 18   7 0.42
 18   8 0.67
 18   9 0.63
 18  10 0.62
 18  11 0.53
 18  12 0.55
 18  13 0.60
 18  14 0.74
 18  15 0.73
 18  16 0.67
 18  17 0.59
 18  18 0.65
 18  19 0.76
 18  20 0.64
 18  21 0.75
 18  22 0.29
 19   1 0.58
 19   2 0.67
 19   3 0.72
 19   4 0.53
 19   5 0.59
 19   6 0.69
 19   7 0.56
 19   8 0.74
 19   9 0.67
 19  10 0.70
 19  11 0.62
 19  12 0.66
 19  13 0.75
 19  14 0.58
 19  15 0.68
 19  16 0.64
 19  17 0.63
 19  18 0.66
 19  19 0.63
 19  20 0.66
 19  21 0.68
 19  22 0.36
 20   1 0.46
 20   2 0.50
 20   3 0.78
 20   4 0.51
 20   5 0.74
 20   6 0.63
 20   7 0.44
 20   8 0.71
 20   9 0.64
 20  10 0.70
 20  11 0.64
 20  12 0.53
 20  13 0.66
 20  14 0.63
 20  15 0.72
 20  16 0.67
 20  17 0.70
 20  18 0.63
 20  19 0.63
 20  20 0.73
 20  21 0.73
 20  22 0.28
 21   1 0.43
 21   2 0.44
 21   3 0.74
 21   4 0.50
 21   5 0.74
 21   6 0.64
 21   7 0.41
 21   8 0.68
 21   9 0.63
 21  10 0.74
 21  11 0.66
 21  12 0.51
 21  13 0.65
 21  14 0.61
 21  15 0.76
 21  16 0.63
 21  17 0.72
 21  18 0.71
 21  19 0.64
 21  20 0.73
 21  21 0.73
 21  22 0.25
 22   1 0.44
 22   2 0.44
 22   3 0.76
 22   4 0.45
 22   5 0.78
 22   6 0.60
 22   7 0.32
 22   8 0.68
 22   9 0.62
 22  10 0.73
 22  11 0.69
 22  12 0.52
 22  13 0.62
 22  14 0.66
 22  15 0.78
 22  16 0.63
 22  17 0.70
 22  18 0.69
 22  19 0.70
 22  20 0.74
 22  21 0.72
 22  22 0.31
  1   1 0.46
  1   2 0.52
  1   3 0.67
  1   4 0.48
  1   5 0.60
  1   6 0.66
  1   7 0.53
  1   8 0.70
  1   9 0.60
  1  10 0.67
  1  11 0.54
  1  12 0.56
  1  13 0.70
  1  14 0.54
  1  15 0.64
  1  16 0.60
  1  17 0.65
  1  18 0.64
  1  19 0.56
  1  20 0.65
  1  21 0.66
  1  22 0.25
  2   1 0.50
  2   2 0.57
  2   3 0.76
  2   4 0.58
  2   5 0.70
  2   6 0.76
  2   7 0.50
  2   8 0.74
  2   9 0.71
  2  10 0.64
  2  11 0.65
  2  12 0.58
  2  13 0.69
  2  14 0.77
  2  15 0.70
  2  16 0.62
  2  17 0.73
  2  18 0.70
  2  19 0.69
  2  20 0.72
  2  21 0.73
  2  22 0.33
  3   1 0.45
  3   2 0.50
  3   3 0.75
  3   4 0.59
  3   5 0.73
  3   6 0.68
  3   7 0.38
  3   8 0.68
  3   9 0.68
  3  10 0.70
  3  11 0.66
  3  12 0.57
  3  13 0.67
  3  14 0.74
  3  15 0.79
  3  16 0.65
  3  17 0.65
  3  18 0.70
  3  19 0.78
  3  20 0.73
  3  21 0.77
  3  22 0.34
  4   1 0.52
  4   2 0.56
  4   3 0.72
  4   4 0.52
  4   5 0.76
  4   6 0.72
  4   7 0.49
  4   8 0.70
  4   9 0.67
  4  10 0.75
  4  11 0.68
  4  12 0.63
  4  13 0.72
  4  14 0.67
  4  15 0.76
  4  16 0.68
  4  17 0.74
  4  18 0.74
  4  19 0.69
  4  20 0.72
  4  21 0.75
  4  22 0.30
  5   1 0.50
  5   2 0.52
  5   3 0.68
  5   4 0.48
  5   5 0.63
  5   6 0.69
  5   7 0.54
  5   8 0.68
  5   9 0.62
  5  10 0.68
  5  11 0.58
  5  12 0.58
  5  13 0.69
  5  14 0.61
  5  15 0.68
  5  16 0.63
  5  17 0.71
  5  18 0.73
  5  19 0.63
  5  20 0.68
  5  21 0.69
  5  22 0.25
  6   1 0.44
  6   2 0.48
  6   3 0.71
  6   4 0.44
  6   5 0.71
  6   6 0.61
  6   7 0.45
  6   8 0.63
  6   9 0.61
  6  10 0.75
  6  11 0.78
  6  12 0.57
  6  13 0.72
  6  14 0.52
  6  15 0.71
  6  16 0.52
  6  17 0.70
  6  18 0.70
  6  19 0.58
  6  20 0.74
  6  21 0.61
  6  22 0.30
  7   1 0.39
  7   2 0.44
  7   3 0.74
  7   4 0.53
  7   5 0.74
  7   6 0.67
  7   7 0.35
  7   8 0.64
  7   9 0.66
  7  10 0.62
  7  11 0.66
  7  12 0.51
  7  13 0.61
  7  14 0.78
  7  15 0.76
  7  16 0.59
  7  17 0.69
  7  18 0.69
  7  19 0.76
  7  20 0.76
  7  21 0.73
  7  22 0.29
  8   1 0.54
  8   2 0.64
  8   3 0.73
  8   4 0.53
  8   5 0.75
  8   6 0.76
  8   7 0.57
  8   8 0.73
  8   9 0.70
  8  10 0.77
  8  11 0.70
  8  12 0.68
  8  13 0.77
  8  14 0.66
  8  15 0.76
  8  16 0.64
  8  17 0.72
  8  18 0.77
  8  19 0.70
  8  20 0.73
  8  21 0.73
  8  22 0.35
  9   1 0.46
  9   2 0.50
  9   3 0.71
  9   4 0.44
  9   5 0.69
  9   6 0.66
  9   7 0.49
  9   8 0.67
  9   9 0.60
  9  10 0.70
  9  11 0.69
  9  12 0.59
  9  13 0.75
  9  14 0.52
  9  15 0.72
  9  16 0.56
  9  17 0.76
  9  18 0.70
  9  19 0.59
  9  20 0.69
  9  21 0.68
  9  22 0.26
 10   1 0.45
 10   2 0.52
 10   3 0.72
 10   4 0.42
 10   5 0.70
 10   6 0.65
 10   7 0.43
 10   8 0.71
 10   9 0.57
 10  10 0.69
 10  11 0.64
 10  12 0.58
 10  13 0.67
 10  14 0.59
 10  15 0.72
 10  16 0.64
 10  17 0.70
 10  18 0.67
 10  19 0.63
 10  20 0.67
 10  21 0.71
 10  22 0.29
 11   1 0.54
 11   2 0.60
 11   3 0.71
 11   4 0.56
 11   5 0.63
 11   6 0.74
 11   7 0.44
 11   8 0.64
 11   9 0.70
 11  10 0.69
 11  11 0.69
 11  12 0.65
 11  13 0.69
 11  14 0.71
 11  15 0.72
 11  16 0.59
 11  17 0.63
 11  18 0.70
 11  19 0.73
 11  20 0.73
 11  21 0.72
 11  22 0.44
 12   1 0.42
 12   2 0.49
 12   3 0.70
 12   4 0.44
 12   5 0.74
 12   6 0.57
 12   7 0.40
 12   8 0.71
 12   9 0.61
 12  10 0.75
 12  11 0.68
 12  12 0.54
 12  13 0.64
 12  14 0.54
 12  15 0.72
 12  16 0.60
 12  17 0.71
 12  18 0.68
 12  19 0.60
 12  20 0.68
 12  21 0.69
 12  22 0.29
 13   1 0.24
 13   2 0.25
 13   3 0.36
 13   4 0.29
 13   5 0.52
 13   6 0.35
 13   7 0.17
 13   8 0.39
 13   9 0.33
 13  10 0.39
 13  11 0.35
 13  12 0.25
 13  13 0.32
 13  14 0.40
 13  15 0.45
 13  16 0.44
 13  17 0.49
 13  18 0.41
 13  19 0.36
 13  20 0.33
 13  21 0.49
 13  22 0.12
 14   1 0.49
 14   2 0.58
 14   3 0.68
 14   4 0.47
 14   5 0.62
 14   6 0.65
 14   7 0.48
 14   8 0.74
 14   9 0.62
 14  10 0.71
 14  11 0.51
 14  12 0.59
 14  13 0.66
 14  14 0.56
 14  15 0.68
 14  16 0.64
 14  17 0.63
 14  18 0.62
 14  19 0.59
 14  20 0.63
 14  21 0.70
 14  22 0.29
 15   1 0.44
 15   2 0.48
 15   3 0.68
 15   4 0.42
 15   5 0.66
 15   6 0.58
 15   7 0.40
 15   8 0.68
 15   9 0.58
 15  10 0.72
 15  11 0.59
 15  12 0.58
 15  13 0.66
 15  14 0.54
 15  15 0.71
 15  16 0.62
 15  17 0.66
 15  18 0.66
 15  19 0.60
 15  20 0.65
 15  21 0.67
 15  22 0.25
 16   1 0.48
 16   2 0.53
 16   3 0.71
 16   4 0.50
 16   5 0.71
 16   6 0.66
 16   7 0.41
 16   8 0.71
 16   9 0.63
 16  10 0.73
 16  11 0.64
 16  12 0.59
 16  13 0.67
 16  14 0.64
 16  15 0.78
 16  16 0.68
 16  17 0.69
 16  18 0.72
 16  19 0.72
 16  20 0.68
 16  21 0.73
 16  22 0.27
 17   1 0.41
 17   2 0.45
 17   3 0.69
 17   4 0.49
 17   5 0.64
 17   6 0.63
 17   7 0.39
 17   8 0.66
 17   9 0.59
 17  10 0.67
 17  11 0.57
 17  12 0.50
 17  13 0.63
 17  14 0.57
 17  15 0.64
 17  16 0.55
 17  17 0.60
 17  18 0.61
 17  19 0.60
 17  20 0.64
 17  21 0.62
 17  22 0.23
 18   1 0.46
 18   2 0.50
 18   3 0.69
 18   4 0.66
 18   5 0.62
 18   6 0.69
 18   7 0.42
 18   8 0.66
 18   9 0.63
 18  10 0.61
 18  11 0.52
 18  12 0.54
 18  13 0.60
 18  14 0.74
 18  15 0.73
 18  16 0.66
 18  17 0.58
 18  18 0.65
 18  19 0.75
 18  20 0.64
 18  21 0.75
 18  22 0.29
 19   1 0.58
 19   2 0.67
 19   3 0.71
 19   4 0.53
 19   5 0.59
 19   6 0.69
 19   7 0.55
 19   8 0.74
 19   9 0.67
 19  10 0.70
 19  11 0.61
 19  12 0.66
 19  13 0.75
 19  14 0.58
 19  15 0.68
 19  16 0.63
 19  17 0.63
 19  18 0.65
 19  19 0.62
 19  20 0.66
 19  21 0.68
 19  22 0.36
 20   1 0.45
 20   2 0.49
 20   3 0.78
 20   4 0.50
 20   5 0.74
 20   6 0.62
 20   7 0.43
 20   8 0.70
 20   9 0.63
 20  10 0.70
 20  11 0.63
 20  12 0.53
 20  13 0.66
 20  14 0.63
 20  15 0.72
 20  16 0.67
 20  17 0.70
 20  18 0.62
 20  19 0.63
 20  20 0.73
 20  21 0.72
 20  22 0.27
 21   1 0.43
 21   2 0.43
 21   3 0.73
 21   4 0.49
 21   5 0.74
 21   6 0.64
 21   7 0.40
 21   8 0.67
 21   9 0.62
 21  10 0.74
 21  11 0.66
 21  12 0.50
 21  13 0.65
 21  14 0.61
 21  15 0.76
 21  16 0.63
 21  17 0.72
 21  18 0.71
 21  19 0.64
 21  20 0.72
 21  21 0.73
 21  22 0.25
 22   1 0.44
 22   2 0.43
 22   3 0.75
 22   4 0.45
 22   5 0.78
 22   6 0.59
 22   7 0.32
 22   8 0.68
 22   9 0.62
 22  10 0.73
 22  11 0.69
 22  12 0.51
 22  13 0.62
 22  14 0.66
 22  15 0.78
 22  16 0.63
 22  17 0.69
 22  18 0.69
 22  19 0.70
 22  20 0.74
 22  21 0.72
 22  22 0.30
  1   1 0.46
  1   2 0.52
  1   3 0.67
  1   4 0.48
  1   5 0.60
  1   6 0.66
  1   7 0.53
  1   8 0.70
  1   9 0.60
  1  10 0.67
  1  11 0.54
  1  12 0.56
  1  13 0.70
  1  14 0.54
  1  15 0.64
  1  16 0.60
  1  17 0.65
  1  18 0.64
  1  19 0.56
  1  20 0.65
  1  21 0.66
  1  22 0.25
  2   1 0.50
  2   2 0.57
  2   3 0.76
  2   4 0.58
  2   5 0.70
  2   6 0.76
  2   7 0.50
  2   8 0.74
  2   9 0.71
  2  10 0.64
  2  11 0.65
  2  12 0.58
  2  13 0.69
  2  14 0.77
  2  15 0.70
  2  16 0.62
  2  17 0.73
  2  18 0.70
  2  19 0.69
  2  20 0.72
  2  21 0.73
  2  22 0.33
  3   1 0.45
  3   2 0.50
  3   3 0.75
  3   4 0.59
  3   5 0.73
  3   6 0.68
  3   7 0.38
  3   8 0.68
  3   9 0.68
  3  10 0.70
  3  11 0.66
  3  12 0.57
  3  13 0.67
  3  14 0.74
  3  15 0.79
  3  16 0.65
  3  17 0.65
  3  18 0.70
  3  19 0.78
  3  20 0.73
  3  21 0.77
  3  22 0.34
  4   1 0.52
  4   2 0.56
  4   3 0.72
  4   4 0.52
  4   5 0.76
  4   6 0.72
  4   7 0.49
  4   8 0.70
  4   9 0.67
  4  10 0.75
  4  11 0.68
  4  12 0.63
  4  13 0.72
  4  14 0.67
  4  15 0.76
  4  16 0.68
  4  17 0.74
  4  18 0.74
  4  19 0.69
  4  20 0.72
  4  21 0.75
  4  22 0.30
  5   1 0.50
  5   2 0.52
  5   3 0.68
  5   4 0.48
  5   5 0.63
  5   6 0.69
  5   7 0.54
  5   8 0.68
  5   9 0.62
  5  10 0.68
  5  11 0.58
  5  12 0.58
  5  13 0.69
  5  14 0.61
  5  15 0.68
  5  16 0.63
  5  17 0.71
  5  18 0.73
  5  19 0.63
  5  20 0.68
  5  21 0.69
  5  22 0.25
  6   1 0.44
  6   2 0.48
  6   3 0.71
  6   4 0.44
  6   5 0.71
  6   6 0.61
  6   7 0.45
  6   8 0.63
  6   9 0.61
  6  10 0.75
  6  11 0.78
  6  12 0.57
  6  13 0.72
  6  14 0.52
  6  15 0.71
  6  16 0.52
  6  17 0.70
  6  18 0.70
  6  19 0.58
  6  20 0.74
  6  21 0.61
  6  22 0.30
  7   1 0.39
  7   2 0.44
  7   3 0.74
  7   4 0.53
  7   5 0.74
  7   6 0.67
  7   7 0.35
  7   8 0.64
  7   9 0.66
  7  10 0.62
  7  11 0.66
  7  12 0.51
  7  13 0.61
  7  14 0.78
  7  15 0.76
  7  16 0.59
  7  17 0.69
  7  18 0.69
  7  19 0.76
  7  20 0.76
  7  21 0.73
  7  22 0.29
  8   1 0.54
  8   2 0.64
  8   3 0.73
  8   4 0.53
  8   5 0.75
  8   6 0.76
  8   7 0.57
  8   8 0.73
  8   9 0.70
  8  10 0.77
  8  11 0.70
  8  12 0.68
  8  13 0.77
  8  14 0.66
  8  15 0.76
  8  16 0.64
  8  17 0.72
  8  18 0.77
  8  19 0.70
  8  20 0.73
  8  21 0.73
  8  22 0.35
  9   1 0.46
  9   2 0.50
  9   3 0.71
  9   4 0.44
  9   5 0.69
  9   6 0.66
  9   7 0.49
  9   8 0.67
  9   9 0.60
  9  10 0.70
  9  11 0.69
  9  12 0.59
  9  13 0.75
  9  14 0.52
  9  15 0.72
  9  16 0.56
  9  17 0.76
  9  18 0.70
  9  19 0.59
  9  20 0.69
  9  21 0.68
  9  22 0.26
 10   1 0.45
 10   2 0.52
 10   3 0.72
 10   4 0.42
 10   5 0.70
 10   6 0.65
 10   7 0.43
 10   8 0.71
 10   9 0.57
 10  10 0.69
 10  11 0.64
 10  12 0.58
 10  13 0.67
 10  14 0.59
 10  15 0.72
 10  16 0.64
 10  17 0.70
 10  18 0.67
 10  19 0.63
 10  20 0.67
 10  21 0.71
 10  22 0.29
 11   1 0.54
 11   2 0.60
 11   3 0.71
 11   4 0.56
 11   5 0.63
 11   6 0.74
 11   7 0.44
 11   8 0.64
 11   9 0.70
 11  10 0.69
 11  11 0.69
 11  12 0.65
 11  13 0.69
 11  14 0.71
 11  15 0.72
 11  16 0.59
 11  17 0.63
 11  18 0.70
 11  19 0.73
 11  20 0.73
 11  21 0.72
 11  22 0.44
 12   1 0.42
 12   2 0.49
 12   3 0.70
 12   4 0.44
 12   5 0.74
 12   6 0.57
 12   7 0.40
 12   8 0.71
 12   9 0.61
 12  10 0.75
 12  11 0.68
 12  12 0.54
 12  13 0.64
 12  14 0.54
 12  15 0.72
 12  16 0.60
 12  17 0.71
 12  18 0.68
 12  19 0.60
 12  20 0.68
 12  21 0.69
 12  22 0.29
 13   1 0.24
 13   2 0.25
 13   3 0.36
 13   4 0.29
 13   5 0.52
 13   6 0.35
 13   7 0.17
 13   8 0.39
 13   9 0.33
 13  10 0.39
 13  11 0.35
 13  12 0.25
 13  13 0.32
 13  14 0.40
 13  15 0.45
 13  16 0.44
 13  17 0.49
 13  18 0.41
 13  19 0.36
 13  20 0.33
 13  21 0.49
 13  22 0.12
 14   1 0.49
 14   2 0.58
 14   3 0.68
 14   4 0.47
 14   5 0.62
 14   6 0.65
 14   7 0.48
 14   8 0.74
 14   9 0.62
 14  10 0.71
 14  11 0.51
 14  12 0.59
 14  13 0.66
 14  14 0.56
 14  15 0.68
 14  16 0.64
 14  17 0.63
 14  18 0.62
 14  19 0.59
 14  20 0.63
 14  21 0.70
 14  22 0.29
 15   1 0.44
 15   2 0.48
 15   3 0.68
 15   4 0.42
 15   5 0.66
 15   6 0.58
 15   7 0.40
 15   8 0.68
 15   9 0.58
 15  10 0.72
 15  11 0.59
 15  12 0.58
 15  13 0.66
 15  14 0.54
 15  15 0.71
 15  16 0.62
 15  17 0.66
 15  18 0.66
 15  19 0.60
 15  20 0.65
 15  21 0.67
 15  22 0.25
 16   1 0.48
 16   2 0.53
 16   3 0.71
 16   4 0.50
 16   5 0.71
 16   6 0.66
 16   7 0.41
 16   8 0.71
 16   9 0.63
 16  10 0.73
 16  11 0.64
 16  12 0.59
 16  13 0.67
 16  14 0.64
 16  15 0.78
 16  16 0.68
 16  17 0.69
 16  18 0.72
 16  19 0.72
 16  20 0.68
 16  21 0.73
 16  22 0.27
 17   1 0.41
 17   2 0.45
 17   3 0.69
 17   4 0.49
 17   5 0.64
 17   6 0.63
 17   7 0.39
 17   8 0.66
 17   9 0.59
 17  10 0.67
 17  11 0.57
 17  12 0.50
 17  13 0.63
 17  14 0.57
 17  15 0.64
 17  16 0.55
 17  17 0.60
 17  18 0.61
 17  19 0.60
 17  20 0.64
 17  21 0.62
 17  22 0.23
 18   1 0.46
 18   2 0.50
 18   3 0.69
 18   4 0.66
 18   5 0.62
 18   6 0.69
 18   7 0.42
 18   8 0.66
 18   9 0.63
 18  10 0.61
 18  11 0.52
 18  12 0.54
 18  13 0.60
 18  14 0.74
 18  15 0.73
 18  16 0.66
 18  17 0.58
 18  18 0.65
 18  19 0.75
 18  20 0.64
 18  21 0.75
 18  22 0.29
 19   1 0.58
 19   2 0.67
 19   3 0.71
 19   4 0.53
 19   5 0.59
 19   6 0.69
 19   7 0.55
 19   8 0.74
 19   9 0.67
 19  10 0.70
 19  11 0.61
 19  12 0.66
 19  13 0.75
 19  14 0.58
 19  15 0.68
 19  16 0.63
 19  17 0.63
 19  18 0.65
 19  19 0.62
 19  20 0.66
 19  21 0.68
 19  22 0.36
 20   1 0.45
 20   2 0.49
 20   3 0.78
 20   4 0.50
 20   5 0.74
 20   6 0.62
 20   7 0.43
 20   8 0.70
 20   9 0.63
 20  10 0.70
 20  11 0.63
 20  12 0.53
 20  13 0.66
 20  14 0.63
 20  15 0.72
 20  16 0.67
 20  17 0.70
 20  18 0.62
 20  19 0.63
 20  20 0.73
 20  21 0.72
 20  22 0.27
 21   1 0.43
 21   2 0.43
 21   3 0.73
 21   4 0.49
 21   5 0.74
 21   6 0.64
 21   7 0.40
 21   8 0.67
 21   9 0.62
 21  10 0.74
 21  11 0.66
 21  12 0.50
 21  13 0.65
 21  14 0.61
 21  15 0.76
 21  16 0.63
 21  17 0.72
 21  18 0.71
 21  19 0.64
 21  20 0.72
 21  21 0.73
 21  22 0.25
 22   1 0.44
 22   2 0.43
 22   3 0.75
 22   4 0.45
 22   5 0.78
 22   6 0.59
 22   7 0.32
 22   8 0.68
 22   9 0.62
 22  10 0.73
 22  11 0.69
 22  12 0.51
 22  13 0.62
 22  14 0.66
 22  15 0.78
 22  16 0.63
 22  17 0.69
 22  18 0.69
 22  19 0.70
 22  20 0.74
 22  21 0.72
 22  22 0.30
