  1   1 1.00
  1   2 0.74
  1   3 0.60
  1   4 0.76
  1   5 0.79
  1   6 0.74
  1   7 0.56
  1   8 0.75
  1   9 0.78
  1  10 0.69
  1  11 0.58
  1  12 0.70
  1  13 0.35
  1  14 0.80
  1  15 0.77
  1  16 0.64
  1  17 0.73
  1  18 0.58
  1  19 0.74
  1  20 0.76
  1  21 0.72
  1  22 0.63
  2   1 0.74
  2   2 1.00
  2   3 0.74
  2   4 0.74
  2   5 0.75
  2   6 0.67
  2   7 0.76
  2   8 0.76
  2   9 0.70
  2  10 0.73
  2  11 0.69
  2  12 0.69
  2  13 0.45
  2  14 0.71
  2  15 0.67
  2  16 0.70
  2  17 0.69
  2  18 0.75
  2  19 0.70
  2  20 0.76
  2  21 0.73
  2  22 0.73
  3   1 0.60
  3   2 0.74
  3   3 1.00
  3   4 0.73
  3   5 0.64
  3   6 0.63
  3   7 0.80
  3   8 0.76
  3   9 0.67
  3  10 0.72
  3  11 0.73
  3  12 0.72
  3  13 0.51
  3  14 0.68
  3  15 0.65
  3  16 0.80
  3  17 0.73
  3  18 0.79
  3  19 0.63
  3  20 0.71
  3  21 0.70
  3  22 0.78
  4   1 0.76
  4   2 0.74
  4   3 0.73
  4   4 1.00
  4   5 0.76
  4   6 0.74
  4   7 0.73
  4   8 0.83
  4   9 0.76
  4  10 0.78
  4  11 0.70
  4  12 0.77
  4  13 0.51
  4  14 0.77
  4  15 0.81
  4  16 0.77
  4  17 0.76
  4  18 0.67
  4  19 0.72
  4  20 0.76
  4  21 0.79
  4  22 0.77
  5   1 0.79
  5   2 0.75
  5   3 0.64
  5   4 0.76
  5   5 1.00
  5   6 0.69
  5   7 0.67
  5   8 0.77
  5   9 0.71
  5  10 0.69
  5  11 0.62
  5  12 0.68
  5  13 0.38
  5  14 0.72
  5  15 0.71
  5  16 0.66
  5  17 0.69
  5  18 0.63
  5  19 0.70
  5  20 0.75
  5  21 0.72
  5  22 0.66
  6   1 0.74
  6   2 0.67
  6   3 0.63
  6   4 0.74
  6   5 0.69
  6   6 1.00
  6   7 0.59
  6   8 0.76
  6   9 0.82
  6  10 0.69
  6  11 0.63
  6  12 0.76
  6  13 0.32
  6  14 0.69
  6  15 0.74
  6  16 0.65
  6  17 0.70
  6  18 0.52
  6  19 0.73
  6  20 0.74
  6  21 0.73
  6  22 0.69
  7   1 0.56
  7   2 0.76
  7   3 0.80
  7   4 0.73
  7   5 0.67
  7   6 0.59
  7   7 1.00
  7   8 0.70
  7   9 0.61
  7  10 0.67
  7  11 0.68
  7  12 0.65
  7  13 0.52
  7  14 0.62
  7  15 0.62
  7  16 0.74
  7  17 0.62
  7  18 0.77
  7  19 0.57
  7  20 0.71
  7  21 0.75
  7  22 0.80
  8   1 0.75
  8   2 0.76
  8   3 0.76
  8   4 0.83
  8   5 0.77
  8   6 0.76
  8   7 0.70
  8   8 1.00
  8   9 0.79
  8  10 0.79
  8  11 0.75
  8  12 0.75
  8  13 0.41
  8  14 0.78
  8  15 0.73
  8  16 0.79
  8  17 0.76
  8  18 0.66
  8  19 0.79
  8  20 0.73
  8  21 0.68
  8  22 0.72
  9   1 0.78
  9   2 0.70
  9   3 0.67
  9   4 0.76
  9   5 0.71
  9   6 0.82
  9   7 0.61
  9   8 0.79
  9   9 1.00
  9  10 0.78
  9  11 0.62
  9  12 0.73
  9  13 0.37
  9  14 0.74
  9  15 0.76
  9  16 0.70
  9  17 0.68
  9  18 0.56
  9  19 0.75
  9  20 0.73
  9  21 0.73
  9  22 0.69
 10   1 0.69
 10   2 0.73
 10   3 0.72
 10   4 0.78
 10   5 0.69
 10   6 0.69
 10   7 0.67
 10   8 0.79
 10   9 0.78
 10  10 1.00
 10  11 0.68
 10  12 0.71
 10  13 0.46
 10  14 0.72
 10  15 0.77
 10  16 0.75
 10  17 0.71
 10  18 0.63
 10  19 0.72
 10  20 0.72
 10  21 0.70
 10  22 0.74
 11   1 0.58
 11   2 0.69
 11   3 0.73
 11   4 0.70
 11   5 0.62
 11   6 0.63
 11   7 0.68
 11   8 0.75
 11   9 0.62
 11  10 0.68
 11  11 1.00
 11  12 0.61
 11  13 0.34
 11  14 0.60
 11  15 0.60
 11  16 0.70
 11  17 0.62
 11  18 0.65
 11  19 0.69
 11  20 0.62
 11  21 0.63
 11  22 0.69
 12   1 0.70
 12   2 0.69
 12   3 0.72
 12   4 0.77
 12   5 0.68
 12   6 0.76
 12   7 0.65
 12   8 0.75
 12   9 0.73
 12  10 0.71
 12  11 0.61
 12  12 1.00
 12  13 0.50
 12  14 0.73
 12  15 0.74
 12  16 0.75
 12  17 0.72
 12  18 0.59
 12  19 0.70
 12  20 0.75
 12  21 0.75
 12  22 0.75
 13   1 0.35
 13   2 0.45
 13   3 0.51
 13   4 0.51
 13   5 0.38
 13   6 0.32
 13   7 0.52
 13   8 0.41
 13   9 0.37
 13  10 0.46
 13  11 0.34
 13  12 0.50
 13  13 1.00
 13  14 0.39
 13  15 0.39
 13  16 0.48
 13  17 0.39
 13  18 0.44
 13  19 0.28
 13  20 0.45
 13  21 0.50
 13  22 0.48
 14   1 0.80
 14   2 0.71
 14   3 0.68
 14   4 0.77
 14   5 0.72
 14   6 0.69
 14   7 0.62
 14   8 0.78
 14   9 0.74
 14  10 0.72
 14  11 0.60
 14  12 0.73
 14  13 0.39
 14  14 1.00
 14  15 0.75
 14  16 0.70
 14  17 0.75
 14  18 0.61
 14  19 0.77
 14  20 0.76
 14  21 0.67
 14  22 0.65
 15   1 0.77
 15   2 0.67
 15   3 0.65
 15   4 0.81
 15   5 0.71
 15   6 0.74
 15   7 0.62
 15   8 0.73
 15   9 0.76
 15  10 0.77
 15  11 0.60
 15  12 0.74
 15  13 0.39
 15  14 0.75
 15  15 1.00
 15  16 0.73
 15  17 0.75
 15  18 0.58
 15  19 0.71
 15  20 0.74
 15  21 0.75
 15  22 0.74
 16   1 0.64
 16   2 0.70
 16   3 0.80
 16   4 0.77
 16   5 0.66
 16   6 0.65
 16   7 0.74
 16   8 0.79
 16   9 0.70
 16  10 0.75
 16  11 0.70
 16  12 0.75
 16  13 0.48
 16  14 0.70
 16  15 0.73
 16  16 1.00
 16  17 0.72
 16  18 0.72
 16  19 0.70
 16  20 0.70
 16  21 0.72
 16  22 0.78
 17   1 0.73
 17   2 0.69
 17   3 0.73
 17   4 0.76
 17   5 0.69
 17   6 0.70
 17   7 0.62
 17   8 0.76
 17   9 0.68
 17  10 0.71
 17  11 0.62
 17  12 0.72
 17  13 0.39
 17  14 0.75
 17  15 0.75
 17  16 0.72
 17  17 1.00
 17  18 0.63
 17  19 0.67
 17  20 0.71
 17  21 0.66
 17  22 0.66
 18   1 0.58
 18   2 0.75
 18   3 0.79
 18   4 0.67
 18   5 0.63
 18   6 0.52
 18   7 0.77
 18   8 0.66
 18   9 0.56
 18  10 0.63
 18  11 0.65
 18  12 0.59
 18  13 0.44
 18  14 0.61
 18  15 0.58
 18  16 0.72
 18  17 0.63
 18  18 1.00
 18  19 0.60
 18  20 0.66
 18  21 0.67
 18  22 0.67
 19   1 0.74
 19   2 0.70
 19   3 0.63
 19   4 0.72
 19   5 0.70
 19   6 0.73
 19   7 0.57
 19   8 0.79
 19   9 0.75
 19  10 0.72
 19  11 0.69
 19  12 0.70
 19  13 0.28
 19  14 0.77
 19  15 0.71
 19  16 0.70
 19  17 0.67
 19  18 0.60
 19  19 1.00
 19  20 0.74
 19  21 0.62
 19  22 0.63
 20   1 0.76
 20   2 0.76
 20   3 0.71
 20   4 0.76
 20   5 0.75
 20   6 0.74
 20   7 0.71
 20   8 0.73
 20   9 0.73
 20  10 0.72
 20  11 0.62
 20  12 0.75
 20  13 0.45
 20  14 0.76
 20  15 0.74
 20  16 0.70
 20  17 0.71
 20  18 0.66
 20  19 0.74
 20  20 1.00
 20  21 0.76
 20  22 0.78
 21   1 0.72
 21   2 0.73
 21   3 0.70
 21   4 0.79
 21   5 0.72
 21   6 0.73
 21   7 0.75
 21   8 0.68
 21   9 0.73
 21  10 0.70
 21  11 0.63
 21  12 0.75
 21  13 0.50
 21  14 0.67
 21  15 0.75
 21  16 0.72
 21  17 0.66
 21  18 0.67
 21  19 0.62
 21  20 0.76
 21  21 1.00
 21  22 0.79
 22   1 0.63
 22   2 0.73
 22   3 0.78
 22   4 0.77
 22   5 0.66
 22   6 0.69
 22   7 0.80
 22   8 0.72
 22   9 0.69
 22  10 0.74
 22  11 0.69
 22  12 0.75
 22  13 0.48
 22  14 0.65
 22  15 0.74
 22  16 0.78
 22  17 0.66
 22  18 0.67
 22  19 0.63
 22  20 0.78
 22  21 0.79
 22  22 1.00
  1   1 1.00
  1   2 0.74
  1   3 0.59
  1   4 0.76
  1   5 0.78
  1   6 0.74
  1   7 0.56
  1   8 0.75
  1   9 0.77
  1  10 0.68
  1  11 0.57
  1  12 0.70
  1  13 0.34
  1  14 0.80
  1  15 0.77
  1  16 0.63
  1  17 0.73
  1  18 0.57
  1  19 0.73
  1  20 0.76
  1  21 0.72
  1  22 0.63
  2   1 0.74
  2   2 1.00
  2   3 0.74
  2   4 0.74
  2   5 0.75
  2   6 0.67
  2   7 0.76
  2   8 0.76
  2   9 0.69
  2  10 0.72
  2  11 0.68
  2  12 0.69
  2  13 0.45
  2  14 0.71
  2  15 0.66
  2  16 0.70
  2  17 0.69
  2  18 0.74
  2  19 0.69
  2  20 0.76
  2  21 0.72
  2  22 0.73
  3   1 0.59
  3   2 0.74
  3   3 1.00
  3   4 0.73
  3   5 0.63
  3   6 0.62
  3   7 0.79
  3   8 0.76
  3   9 0.67
  3  10 0.72
  3  11 0.73
  3  12 0.72
  3  13 0.51
  3  14 0.68
  3  15 0.65
  3  16 0.80
  3  17 0.72
  3  18 0.78
  3  19 0.63
  3  20 0.70
  3  21 0.70
  3  22 0.78
  4   1 0.76
  4   2 0.74
  4   3 0.73
  4   4 1.00
  4   5 0.75
  4   6 0.74
  4   7 0.72
  4   8 0.83
  4   9 0.76
  4  10 0.78
  4  11 0.70
  4  12 0.77
  4  13 0.51
  4  14 0.77
  4  15 0.80
  4  16 0.77
  4  17 0.75
  4  18 0.67
  4  19 0.72
  4  20 0.76
  4  21 0.78
  4  22 0.77
  5   1 0.78
  5   2 0.75
  5   3 0.63
  5   4 0.75
  5   5 1.00
  5   6 0.69
  5   7 0.66
  5   8 0.76
  5   9 0.71
  5  10 0.68
  5  11 0.61
  5  12 0.68
  5  13 0.38
  5  14 0.72
  5  15 0.70
  5  16 0.66
  5  17 0.69
  5  18 0.63
  5  19 0.70
  5  20 0.74
  5  21 0.71
  5  22 0.65
  6   1 0.74
  6   2 0.67
  6   3 0.62
  6   4 0.74
  6   5 0.69
  6   6 1.00
  6   7 0.59
  6   8 0.76
  6   9 0.81
  6  10 0.68
  6  11 0.63
  6  12 0.76
  6  13 0.31
  6  14 0.68
  6  15 0.74
  6  16 0.65
  6  17 0.69
  6  18 0.51
  6  19 0.73
  6  20 0.73
  6  21 0.73
  6  22 0.68
  7   1 0.56
  7   2 0.76
  7   3 0.79
  7   4 0.72
  7   5 0.66
  7   6 0.59
  7   7 1.00
  7   8 0.70
  7   9 0.60
  7  10 0.67
  7  11 0.68
  7  12 0.65
  7  13 0.52
  7  14 0.62
  7  15 0.62
  7  16 0.73
  7  17 0.61
  7  18 0.77
  7  19 0.57
  7  20 0.71
  7  21 0.75
  7  22 0.79
  8   1 0.75
  8   2 0.76
  8   3 0.76
  8   4 0.83
  8   5 0.76
  8   6 0.76
  8   7 0.70
  8   8 1.00
  8   9 0.79
  8  10 0.79
  8  11 0.75
  8  12 0.75
  8  13 0.40
  8  14 0.77
  8  15 0.73
  8  16 0.79
  8  17 0.76
  8  18 0.66
  8  19 0.79
  8  20 0.73
  8  21 0.68
  8  22 0.71
  9   1 0.77
  9   2 0.69
  9   3 0.67
  9   4 0.76
  9   5 0.71
  9   6 0.81
  9   7 0.60
  9   8 0.79
  9   9 1.00
  9  10 0.78
  9  11 0.61
  9  12 0.73
  9  13 0.36
  9  14 0.74
  9  15 0.76
  9  16 0.70
  9  17 0.68
  9  18 0.55
  9  19 0.75
  9  20 0.73
  9  21 0.72
  9  22 0.69
 10   1 0.68
 10   2 0.72
 10   3 0.72
 10   4 0.78
 10   5 0.68
 10   6 0.68
 10   7 0.67
 10   8 0.79
 10   9 0.78
 10  10 1.00
 10  11 0.67
 10  12 0.71
 10  13 0.45
 10  14 0.71
 10  15 0.76
 10  16 0.75
 10  17 0.70
 10  18 0.63
 10  19 0.71
 10  20 0.71
 10  21 0.70
 10  22 0.74
 11   1 0.57
 11   2 0.68
 11   3 0.73
 11   4 0.70
 11   5 0.61
 11   6 0.63
 11   7 0.68
 11   8 0.75
 11   9 0.61
 11  10 0.67
 11  11 1.00
 11  12 0.61
 11  13 0.34
 11  14 0.60
 11  15 0.60
 11  16 0.70
 11  17 0.61
 11  18 0.65
 11  19 0.69
 11  20 0.62
 11  21 0.63
 11  22 0.69
 12   1 0.70
 12   2 0.69
 12   3 0.72
 12   4 0.77
 12   5 0.68
 12   6 0.76
 12   7 0.65
 12   8 0.75
 12   9 0.73
 12  10 0.71
 12  11 0.61
 12  12 1.00
 12  13 0.50
 12  14 0.72
 12  15 0.73
 12  16 0.75
 12  17 0.72
 12  18 0.59
 12  19 0.69
 12  20 0.75
 12  21 0.74
 12  22 0.75
 13   1 0.34
 13   2 0.45
 13   3 0.51
 13   4 0.51
 13   5 0.38
 13   6 0.31
 13   7 0.52
 13   8 0.40
 13   9 0.36
 13  10 0.45
 13  11 0.34
 13  12 0.50
 13  13 1.00
 13  14 0.39
 13  15 0.39
 13  16 0.48
 13  17 0.39
 13  18 0.43
 13  19 0.27
 13  20 0.44
 13  21 0.50
 13  22 0.48
 14   1 0.80
 14   2 0.71
 14   3 0.68
 14   4 0.77
 14   5 0.72
 14   6 0.68
 14   7 0.62
 14   8 0.77
 14   9 0.74
 14  10 0.71
 14  11 0.60
 14  12 0.72
 14  13 0.39
 14  14 1.00
 14  15 0.75
 14  16 0.70
 14  17 0.75
 14  18 0.61
 14  19 0.77
 14  20 0.76
 14  21 0.67
 14  22 0.65
 15   1 0.77
 15   2 0.66
 15   3 0.65
 15   4 0.80
 15   5 0.70
 15   6 0.74
 15   7 0.62
 15   8 0.73
 15   9 0.76
 15  10 0.76
 15  11 0.60
 15  12 0.73
 15  13 0.39
 15  14 0.75
 15  15 1.00
 15  16 0.73
 15  17 0.75
 15  18 0.57
 15  19 0.71
 15  20 0.74
 15  21 0.74
 15  22 0.74
 16   1 0.63
 16   2 0.70
 16   3 0.80
 16   4 0.77
 16   5 0.66
 16   6 0.65
 16   7 0.73
 16   8 0.79
 16   9 0.70
 16  10 0.75
 16  11 0.70
 16  12 0.75
 16  13 0.48
 16  14 0.70
 16  15 0.73
 16  16 1.00
 16  17 0.72
 16  18 0.72
 16  19 0.69
 16  20 0.69
 16  21 0.72
 16  22 0.77
 17   1 0.73
 17   2 0.69
 17   3 0.72
 17   4 0.75
 17   5 0.69
 17   6 0.69
 17   7 0.61
 17   8 0.76
 17   9 0.68
 17  10 0.70
 17  11 0.61
 17  12 0.72
 17  13 0.39
 17  14 0.75
 17  15 0.75
 17  16 0.72
 17  17 1.00
 17  18 0.62
 17  19 0.67
 17  20 0.71
 17  21 0.66
 17  22 0.66
 18   1 0.57
 18   2 0.74
 18   3 0.78
 18   4 0.67
 18   5 0.63
 18   6 0.51
 18   7 0.77
 18   8 0.66
 18   9 0.55
 18  10 0.63
 18  11 0.65
 18  12 0.59
 18  13 0.43
 18  14 0.61
 18  15 0.57
 18  16 0.72
 18  17 0.62
 18  18 1.00
 18  19 0.60
 18  20 0.66
 18  21 0.67
 18  22 0.67
 19   1 0.73
 19   2 0.69
 19   3 0.63
 19   4 0.72
 19   5 0.70
 19   6 0.73
 19   7 0.57
 19   8 0.79
 19   9 0.75
 19  10 0.71
 19  11 0.69
 19  12 0.69
 19  13 0.27
 19  14 0.77
 19  15 0.71
 19  16 0.69
 19  17 0.67
 19  18 0.60
 19  19 1.00
 19  20 0.73
 19  21 0.62
 19  22 0.63
 20   1 0.76
 20   2 0.76
 20   3 0.70
 20   4 0.76
 20   5 0.74
 20   6 0.73
 20   7 0.71
 20   8 0.73
 20   9 0.73
 20  10 0.71
 20  11 0.62
 20  12 0.75
 20  13 0.44
 20  14 0.76
 20  15 0.74
 20  16 0.69
 20  17 0.71
 20  18 0.66
 20  19 0.73
 20  20 1.00
 20  21 0.76
 20  22 0.78
 21   1 0.72
 21   2 0.72
 21   3 0.70
 21   4 0.78
 21   5 0.71
 21   6 0.73
 21   7 0.75
 21   8 0.68
 21   9 0.72
 21  10 0.70
 21  11 0.63
 21  12 0.74
 21  13 0.50
 21  14 0.67
 21  15 0.74
 21  16 0.72
 21  17 0.66
 21  18 0.67
 21  19 0.62
 21  20 0.76
 21  21 1.00
 21  22 0.79
 22   1 0.63
 22   2 0.73
 22   3 0.78
 22   4 0.77
 22   5 0.65
 22   6 0.68
 22   7 0.79
 22   8 0.71
 22   9 0.69
 22  10 0.74
 22  11 0.69
 22  12 0.75
 22  13 0.48
 22  14 0.65
 22  15 0.74
 22  16 0.77
 22  17 0.66
 22  18 0.67
 22  19 0.63
 22  20 0.78
 22  21 0.79
 22  22 1.00
