  1   1 0.47
  1   2 0.46
  1   3 0.70
  1   4 0.34
  1   5 0.59
  1   6 0.69
  1   7 0.58
  1   8 0.64
  1   9 0.63
  1  10 0.67
  1  11 0.58
  1  12 0.52
  1  13 0.73
  1  14 0.35
  1  15 0.69
  1  16 0.47
  1  17 0.55
  1  18 0.64
  1  19 0.60
  1  20 0.66
  1  21 0.61
  1  22 0.43
  2   1 0.54
  2   2 0.66
  2   3 0.70
  2   4 0.40
  2   5 0.69
  2   6 0.64
  2   7 0.58
  2   8 0.65
  2   9 0.64
  2  10 0.65
  2  11 0.57
  2  12 0.61
  2  13 0.74
  2  14 0.56
  2  15 0.69
  2  16 0.58
  2  17 0.66
  2  18 0.57
  2  19 0.68
  2  20 0.63
  2  21 0.57
  2  22 0.54
  3   1 0.45
  3   2 0.52
  3   3 0.63
  3   4 0.30
  3   5 0.64
  3   6 0.68
  3   7 0.41
  3   8 0.58
  3   9 0.59
  3  10 0.71
  3  11 0.56
  3  12 0.57
  3  13 0.61
  3  14 0.50
  3  15 0.71
  3  16 0.60
  3  17 0.61
  3  18 0.67
  3  19 0.67
  3  20 0.71
  3  21 0.66
  3  22 0.49
  4   1 0.41
  4   2 0.39
  4   3 0.65
  4   4 0.24
  4   5 0.55
  4   6 0.57
  4   7 0.40
  4   8 0.53
  4   9 0.62
  4  10 0.54
  4  11 0.61
  4  12 0.49
  4  13 0.61
  4  14 0.35
  4  15 0.58
  4  16 0.50
  4  17 0.54
  4  18 0.56
  4  19 0.52
  4  20 0.66
  4  21 0.57
  4  22 0.35
  5   1 0.51
  5   2 0.58
  5   3 0.73
  5   4 0.30
  5   5 0.70
  5   6 0.77
  5   7 0.50
  5   8 0.67
  5   9 0.66
  5  10 0.76
  5  11 0.59
  5  12 0.63
  5  13 0.70
  5  14 0.52
  5  15 0.79
  5  16 0.60
  5  17 0.67
  5  18 0.73
  5  19 0.74
  5  20 0.77
  5  21 0.70
  5  22 0.51
  6   1 0.38
  6   2 0.39
  6   3 0.73
  6   4 0.29
  6   5 0.53
  6   6 0.62
  6   7 0.46
  6   8 0.48
  6   9 0.62
  6  10 0.58
  6  11 0.57
  6  12 0.41
  6  13 0.60
  6  14 0.32
  6  15 0.54
  6  16 0.43
  6  17 0.51
  6  18 0.57
  6  19 0.49
  6  20 0.58
  6  21 0.48
  6  22 0.40
  7   1 0.45
  7   2 0.53
  7   3 0.74
  7   4 0.26
  7   5 0.70
  7   6 0.71
  7   7 0.38
  7   8 0.53
  7   9 0.64
  7  10 0.70
  7  11 0.70
  7  12 0.58
  7  13 0.60
  7  14 0.56
  7  15 0.77
  7  16 0.66
  7  17 0.70
  7  18 0.66
  7  19 0.76
  7  20 0.81
  7  21 0.70
  7  22 0.51
  8   1 0.55
  8   2 0.60
  8   3 0.66
  8   4 0.33
  8   5 0.72
  8   6 0.73
  8   7 0.46
  8   8 0.57
  8   9 0.64
  8  10 0.69
  8  11 0.68
  8  12 0.66
  8  13 0.69
  8  14 0.58
  8  15 0.76
  8  16 0.74
  8  17 0.70
  8  18 0.60
  8  19 0.69
  8  20 0.65
  8  21 0.67
  8  22 0.54
  9   1 0.48
  9   2 0.44
  9   3 0.77
  9   4 0.32
  9   5 0.70
  9   6 0.69
  9   7 0.45
  9   8 0.63
  9   9 0.64
  9  10 0.67
  9  11 0.61
  9  12 0.56
  9  13 0.67
  9  14 0.34
  9  15 0.78
  9  16 0.47
  9  17 0.54
  9  18 0.63
  9  19 0.65
  9  20 0.69
  9  21 0.63
  9  22 0.46
 10   1 0.50
 10   2 0.50
 10   3 0.74
 10   4 0.29
 10   5 0.69
 10   6 0.78
 10   7 0.46
 10   8 0.63
 10   9 0.60
 10  10 0.70
 10  11 0.61
 10  12 0.59
 10  13 0.66
 10  14 0.44
 10  15 0.80
 10  16 0.59
 10  17 0.62
 10  18 0.70
 10  19 0.70
 10  20 0.70
 10  21 0.72
 10  22 0.49
 11   1 0.53
 11   2 0.51
 11   3 0.72
 11   4 0.36
 11   5 0.65
 11   6 0.75
 11   7 0.51
 11   8 0.64
 11   9 0.63
 11  10 0.69
 11  11 0.55
 11  12 0.63
 11  13 0.66
 11  14 0.40
 11  15 0.74
 11  16 0.53
 11  17 0.58
 11  18 0.65
 11  19 0.65
 11  20 0.64
 11  21 0.67
 11  22 0.51
 12   1 0.43
 12   2 0.45
 12   3 0.69
 12   4 0.27
 12   5 0.64
 12   6 0.64
 12   7 0.45
 12   8 0.56
 12   9 0.64
 12  10 0.65
 12  11 0.72
 12  12 0.56
 12  13 0.65
 12  14 0.45
 12  15 0.71
 12  16 0.61
 12  17 0.62
 12  18 0.61
 12  19 0.67
 12  20 0.71
 12  21 0.61
 12  22 0.46
 13   1 0.52
 13   2 0.56
 13   3 0.45
 13   4 0.27
 13   5 0.65
 13   6 0.67
 13   7 0.23
 13   8 0.38
 13   9 0.54
 13  10 0.67
 13  11 0.42
 13  12 0.62
 13  13 0.49
 13  14 0.46
 13  15 0.63
 13  16 0.44
 13  17 0.55
 13  18 0.49
 13  19 0.61
 13  20 0.52
 13  21 0.51
 13  22 0.51
 14   1 0.51
 14   2 0.56
 14   3 0.72
 14   4 0.33
 14   5 0.66
 14   6 0.71
 14   7 0.48
 14   8 0.54
 14   9 0.68
 14  10 0.68
 14  11 0.65
 14  12 0.57
 14  13 0.68
 14  14 0.56
 14  15 0.66
 14  16 0.70
 14  17 0.66
 14  18 0.59
 14  19 0.66
 14  20 0.64
 14  21 0.63
 14  22 0.55
 15   1 0.52
 15   2 0.50
 15   3 0.68
 15   4 0.29
 15   5 0.66
 15   6 0.72
 15   7 0.42
 15   8 0.59
 15   9 0.68
 15  10 0.68
 15  11 0.64
 15  12 0.60
 15  13 0.64
 15  14 0.49
 15  15 0.71
 15  16 0.61
 15  17 0.60
 15  18 0.62
 15  19 0.64
 15  20 0.69
 15  21 0.63
 15  22 0.52
 16   1 0.43
 16   2 0.48
 16   3 0.68
 16   4 0.26
 16   5 0.62
 16   6 0.68
 16   7 0.44
 16   8 0.61
 16   9 0.60
 16  10 0.67
 16  11 0.62
 16  12 0.57
 16  13 0.65
 16  14 0.43
 16  15 0.74
 16  16 0.57
 16  17 0.61
 16  18 0.70
 16  19 0.70
 16  20 0.73
 16  21 0.68
 16  22 0.41
 17   1 0.42
 17   2 0.49
 17   3 0.62
 17   4 0.27
 17   5 0.59
 17   6 0.57
 17   7 0.53
 17   8 0.59
 17   9 0.63
 17  10 0.57
 17  11 0.68
 17  12 0.53
 17  13 0.69
 17  14 0.47
 17  15 0.63
 17  16 0.57
 17  17 0.63
 17  18 0.54
 17  19 0.62
 17  20 0.65
 17  21 0.55
 17  22 0.42
 18   1 0.39
 18   2 0.55
 18   3 0.68
 18   4 0.25
 18   5 0.76
 18   6 0.63
 18   7 0.30
 18   8 0.55
 18   9 0.57
 18  10 0.64
 18  11 0.65
 18  12 0.60
 18  13 0.54
 18  14 0.59
 18  15 0.77
 18  16 0.62
 18  17 0.72
 18  18 0.65
 18  19 0.78
 18  20 0.76
 18  21 0.64
 18  22 0.50
 19   1 0.57
 19   2 0.69
 19   3 0.65
 19   4 0.41
 19   5 0.71
 19   6 0.65
 19   7 0.52
 19   8 0.64
 19   9 0.66
 19  10 0.68
 19  11 0.60
 19  12 0.65
 19  13 0.72
 19  14 0.55
 19  15 0.67
 19  16 0.55
 19  17 0.65
 19  18 0.59
 19  19 0.68
 19  20 0.67
 19  21 0.52
 19  22 0.54
 20   1 0.39
 20   2 0.49
 20   3 0.71
 20   4 0.25
 20   5 0.67
 20   6 0.65
 20   7 0.42
 20   8 0.66
 20   9 0.62
 20  10 0.65
 20  11 0.61
 20  12 0.55
 20  13 0.59
 20  14 0.48
 20  15 0.76
 20  16 0.49
 20  17 0.63
 20  18 0.69
 20  19 0.73
 20  20 0.79
 20  21 0.68
 20  22 0.47
 21   1 0.34
 21   2 0.45
 21   3 0.70
 21   4 0.20
 21   5 0.65
 21   6 0.57
 21   7 0.27
 21   8 0.52
 21   9 0.51
 21  10 0.56
 21  11 0.68
 21  12 0.47
 21  13 0.51
 21  14 0.50
 21  15 0.73
 21  16 0.55
 21  17 0.61
 21  18 0.59
 21  19 0.70
 21  20 0.76
 21  21 0.60
 21  22 0.45
 22   1 0.39
 22   2 0.51
 22   3 0.63
 22   4 0.26
 22   5 0.58
 22   6 0.56
 22   7 0.42
 22   8 0.55
 22   9 0.59
 22  10 0.53
 22  11 0.67
 22  12 0.43
 22  13 0.53
 22  14 0.49
 22  15 0.63
 22  16 0.69
 22  17 0.57
 22  18 0.51
 22  19 0.55
 22  20 0.62
 22  21 0.68
 22  22 0.44
  1   1 0.46
  1   2 0.45
  1   3 0.70
  1   4 0.34
  1   5 0.59
  1   6 0.69
  1   7 0.58
  1   8 0.63
  1   9 0.63
  1  10 0.66
  1  11 0.58
  1  12 0.52
  1  13 0.73
  1  14 0.35
  1  15 0.68
  1  16 0.46
  1  17 0.54
  1  18 0.64
  1  19 0.60
  1  20 0.66
  1  21 0.61
  1  22 0.42
  2   1 0.54
  2   2 0.66
  2   3 0.70
  2   4 0.40
  2   5 0.69
  2   6 0.64
  2   7 0.58
  2   8 0.65
  2   9 0.64
  2  10 0.65
  2  11 0.57
  2  12 0.61
  2  13 0.74
  2  14 0.56
  2  15 0.68
  2  16 0.58
  2  17 0.65
  2  18 0.56
  2  19 0.68
  2  20 0.63
  2  21 0.56
  2  22 0.53
  3   1 0.45
  3   2 0.51
  3   3 0.63
  3   4 0.29
  3   5 0.63
  3   6 0.67
  3   7 0.41
  3   8 0.58
  3   9 0.58
  3  10 0.70
  3  11 0.56
  3  12 0.56
  3  13 0.60
  3  14 0.49
  3  15 0.71
  3  16 0.59
  3  17 0.61
  3  18 0.67
  3  19 0.67
  3  20 0.71
  3  21 0.66
  3  22 0.48
  4   1 0.41
  4   2 0.39
  4   3 0.64
  4   4 0.24
  4   5 0.55
  4   6 0.57
  4   7 0.40
  4   8 0.52
  4   9 0.62
  4  10 0.54
  4  11 0.61
  4  12 0.48
  4  13 0.61
  4  14 0.35
  4  15 0.58
  4  16 0.49
  4  17 0.53
  4  18 0.56
  4  19 0.52
  4  20 0.66
  4  21 0.56
  4  22 0.35
  5   1 0.50
  5   2 0.58
  5   3 0.73
  5   4 0.30
  5   5 0.70
  5   6 0.76
  5   7 0.50
  5   8 0.66
  5   9 0.65
  5  10 0.75
  5  11 0.59
  5  12 0.63
  5  13 0.69
  5  14 0.52
  5  15 0.79
  5  16 0.60
  5  17 0.66
  5  18 0.72
  5  19 0.74
  5  20 0.76
  5  21 0.70
  5  22 0.50
  6   1 0.38
  6   2 0.39
  6   3 0.73
  6   4 0.28
  6   5 0.52
  6   6 0.62
  6   7 0.45
  6   8 0.47
  6   9 0.62
  6  10 0.58
  6  11 0.56
  6  12 0.41
  6  13 0.60
  6  14 0.32
  6  15 0.54
  6  16 0.43
  6  17 0.50
  6  18 0.57
  6  19 0.49
  6  20 0.58
  6  21 0.47
  6  22 0.40
  7   1 0.44
  7   2 0.53
  7   3 0.74
  7   4 0.26
  7   5 0.69
  7   6 0.71
  7   7 0.37
  7   8 0.53
  7   9 0.64
  7  10 0.69
  7  11 0.70
  7  12 0.58
  7  13 0.60
  7  14 0.55
  7  15 0.77
  7  16 0.66
  7  17 0.70
  7  18 0.65
  7  19 0.76
  7  20 0.81
  7  21 0.70
  7  22 0.51
  8   1 0.55
  8   2 0.59
  8   3 0.66
  8   4 0.33
  8   5 0.71
  8   6 0.73
  8   7 0.45
  8   8 0.56
  8   9 0.64
  8  10 0.69
  8  11 0.68
  8  12 0.66
  8  13 0.69
  8  14 0.58
  8  15 0.76
  8  16 0.74
  8  17 0.69
  8  18 0.60
  8  19 0.69
  8  20 0.65
  8  21 0.67
  8  22 0.54
  9   1 0.47
  9   2 0.44
  9   3 0.77
  9   4 0.32
  9   5 0.70
  9   6 0.69
  9   7 0.45
  9   8 0.63
  9   9 0.64
  9  10 0.67
  9  11 0.61
  9  12 0.56
  9  13 0.66
  9  14 0.34
  9  15 0.78
  9  16 0.47
  9  17 0.54
  9  18 0.63
  9  19 0.65
  9  20 0.69
  9  21 0.63
  9  22 0.45
 10   1 0.49
 10   2 0.49
 10   3 0.74
 10   4 0.29
 10   5 0.69
 10   6 0.78
 10   7 0.46
 10   8 0.62
 10   9 0.59
 10  10 0.70
 10  11 0.61
 10  12 0.58
 10  13 0.65
 10  14 0.44
 10  15 0.79
 10  16 0.59
 10  17 0.62
 10  18 0.70
 10  19 0.70
 10  20 0.70
 10  21 0.72
 10  22 0.48
 11   1 0.53
 11   2 0.51
 11   3 0.72
 11   4 0.36
 11   5 0.65
 11   6 0.75
 11   7 0.51
 11   8 0.63
 11   9 0.63
 11  10 0.69
 11  11 0.55
 11  12 0.63
 11  13 0.66
 11  14 0.39
 11  15 0.73
 11  16 0.53
 11  17 0.58
 11  18 0.65
 11  19 0.65
 11  20 0.63
 11  21 0.67
 11  22 0.50
 12   1 0.43
 12   2 0.45
 12   3 0.69
 12   4 0.27
 12   5 0.64
 12   6 0.64
 12   7 0.45
 12   8 0.56
 12   9 0.64
 12  10 0.65
 12  11 0.72
 12  12 0.55
 12  13 0.65
 12  14 0.45
 12  15 0.71
 12  16 0.61
 12  17 0.62
 12  18 0.60
 12  19 0.66
 12  20 0.70
 12  21 0.60
 12  22 0.45
 13   1 0.51
 13   2 0.56
 13   3 0.44
 13   4 0.26
 13   5 0.64
 13   6 0.67
 13   7 0.22
 13   8 0.38
 13   9 0.53
 13  10 0.67
 13  11 0.42
 13  12 0.62
 13  13 0.49
 13  14 0.46
 13  15 0.63
 13  16 0.43
 13  17 0.55
 13  18 0.49
 13  19 0.61
 13  20 0.51
 13  21 0.50
 13  22 0.50
 14   1 0.51
 14   2 0.56
 14   3 0.72
 14   4 0.33
 14   5 0.66
 14   6 0.71
 14   7 0.48
 14   8 0.54
 14   9 0.68
 14  10 0.68
 14  11 0.65
 14  12 0.57
 14  13 0.67
 14  14 0.56
 14  15 0.65
 14  16 0.70
 14  17 0.66
 14  18 0.58
 14  19 0.65
 14  20 0.64
 14  21 0.62
 14  22 0.55
 15   1 0.51
 15   2 0.49
 15   3 0.68
 15   4 0.28
 15   5 0.66
 15   6 0.72
 15   7 0.41
 15   8 0.59
 15   9 0.68
 15  10 0.68
 15  11 0.64
 15  12 0.60
 15  13 0.63
 15  14 0.49
 15  15 0.70
 15  16 0.60
 15  17 0.60
 15  18 0.61
 15  19 0.64
 15  20 0.69
 15  21 0.63
 15  22 0.52
 16   1 0.42
 16   2 0.48
 16   3 0.68
 16   4 0.25
 16   5 0.62
 16   6 0.67
 16   7 0.44
 16   8 0.60
 16   9 0.60
 16  10 0.66
 16  11 0.62
 16  12 0.57
 16  13 0.65
 16  14 0.43
 16  15 0.74
 16  16 0.56
 16  17 0.61
 16  18 0.70
 16  19 0.70
 16  20 0.73
 16  21 0.68
 16  22 0.41
 17   1 0.42
 17   2 0.48
 17   3 0.62
 17   4 0.26
 17   5 0.59
 17   6 0.57
 17   7 0.52
 17   8 0.59
 17   9 0.62
 17  10 0.56
 17  11 0.68
 17  12 0.53
 17  13 0.69
 17  14 0.46
 17  15 0.63
 17  16 0.57
 17  17 0.63
 17  18 0.54
 17  19 0.61
 17  20 0.65
 17  21 0.55
 17  22 0.41
 18   1 0.38
 18   2 0.54
 18   3 0.68
 18   4 0.24
 18   5 0.75
 18   6 0.62
 18   7 0.30
 18   8 0.54
 18   9 0.57
 18  10 0.63
 18  11 0.65
 18  12 0.59
 18  13 0.54
 18  14 0.59
 18  15 0.77
 18  16 0.62
 18  17 0.71
 18  18 0.65
 18  19 0.77
 18  20 0.75
 18  21 0.64
 18  22 0.50
 19   1 0.57
 19   2 0.68
 19   3 0.64
 19   4 0.41
 19   5 0.71
 19   6 0.65
 19   7 0.51
 19   8 0.63
 19   9 0.66
 19  10 0.68
 19  11 0.60
 19  12 0.65
 19  13 0.72
 19  14 0.55
 19  15 0.66
 19  16 0.55
 19  17 0.65
 19  18 0.59
 19  19 0.67
 19  20 0.67
 19  21 0.52
 19  22 0.54
 20   1 0.39
 20   2 0.48
 20   3 0.70
 20   4 0.24
 20   5 0.67
 20   6 0.64
 20   7 0.41
 20   8 0.66
 20   9 0.62
 20  10 0.65
 20  11 0.60
 20  12 0.55
 20  13 0.58
 20  14 0.48
 20  15 0.76
 20  16 0.49
 20  17 0.62
 20  18 0.69
 20  19 0.73
 20  20 0.79
 20  21 0.68
 20  22 0.47
 21   1 0.33
 21   2 0.45
 21   3 0.70
 21   4 0.19
 21   5 0.65
 21   6 0.56
 21   7 0.26
 21   8 0.51
 21   9 0.51
 21  10 0.56
 21  11 0.68
 21  12 0.47
 21  13 0.51
 21  14 0.49
 21  15 0.73
 21  16 0.54
 21  17 0.61
 21  18 0.58
 21  19 0.70
 21  20 0.76
 21  21 0.60
 21  22 0.44
 22   1 0.39
 22   2 0.51
 22   3 0.63
 22   4 0.25
 22   5 0.58
 22   6 0.56
 22   7 0.41
 22   8 0.55
 22   9 0.58
 22  10 0.53
 22  11 0.66
 22  12 0.43
 22  13 0.53
 22  14 0.49
 22  15 0.62
 22  16 0.69
 22  17 0.57
 22  18 0.51
 22  19 0.55
 22  20 0.62
 22  21 0.68
 22  22 0.43
  1   1 0.46
  1   2 0.45
  1   3 0.70
  1   4 0.34
  1   5 0.59
  1   6 0.69
  1   7 0.58
  1   8 0.63
  1   9 0.63
  1  10 0.66
  1  11 0.58
  1  12 0.52
  1  13 0.73
  1  14 0.35
  1  15 0.68
  1  16 0.46
  1  17 0.54
  1  18 0.64
  1  19 0.60
  1  20 0.66
  1  21 0.61
  1  22 0.42
  2   1 0.54
  2   2 0.66
  2   3 0.70
  2   4 0.40
  2   5 0.69
  2   6 0.64
  2   7 0.58
  2   8 0.65
  2   9 0.64
  2  10 0.65
  2  11 0.57
  2  12 0.61
  2  13 0.74
  2  14 0.56
  2  15 0.68
  2  16 0.58
  2  17 0.65
  2  18 0.56
  2  19 0.68
  2  20 0.63
  2  21 0.56
  2  22 0.53
  3   1 0.45
  3   2 0.51
  3   3 0.63
  3   4 0.29
  3   5 0.63
  3   6 0.67
  3   7 0.41
  3   8 0.58
  3   9 0.58
  3  10 0.70
  3  11 0.56
  3  12 0.56
  3  13 0.60
  3  14 0.49
  3  15 0.71
  3  16 0.59
  3  17 0.61
  3  18 0.67
  3  19 0.67
  3  20 0.71
  3  21 0.66
  3  22 0.48
  4   1 0.41
  4   2 0.39
  4   3 0.64
  4   4 0.24
  4   5 0.55
  4   6 0.57
  4   7 0.40
  4   8 0.52
  4   9 0.62
  4  10 0.54
  4  11 0.61
  4  12 0.48
  4  13 0.61
  4  14 0.35
  4  15 0.58
  4  16 0.49
  4  17 0.53
  4  18 0.56
  4  19 0.52
  4  20 0.66
  4  21 0.56
  4  22 0.35
  5   1 0.50
  5   2 0.58
  5   3 0.73
  5   4 0.30
  5   5 0.70
  5   6 0.76
  5   7 0.50
  5   8 0.66
  5   9 0.65
  5  10 0.75
  5  11 0.59
  5  12 0.63
  5  13 0.69
  5  14 0.52
  5  15 0.79
  5  16 0.60
  5  17 0.66
  5  18 0.72
  5  19 0.74
  5  20 0.76
  5  21 0.70
  5  22 0.50
  6   1 0.38
  6   2 0.39
  6   3 0.73
  6   4 0.28
  6   5 0.52
  6   6 0.62
  6   7 0.45
  6   8 0.47
  6   9 0.62
  6  10 0.58
  6  11 0.56
  6  12 0.41
  6  13 0.60
  6  14 0.32
  6  15 0.54
  6  16 0.43
  6  17 0.50
  6  18 0.57
  6  19 0.49
  6  20 0.58
  6  21 0.47
  6  22 0.40
  7   1 0.44
  7   2 0.53
  7   3 0.74
  7   4 0.26
  7   5 0.69
  7   6 0.71
  7   7 0.37
  7   8 0.53
  7   9 0.64
  7  10 0.69
  7  11 0.70
  7  12 0.58
  7  13 0.60
  7  14 0.55
  7  15 0.77
  7  16 0.66
  7  17 0.70
  7  18 0.65
  7  19 0.76
  7  20 0.81
  7  21 0.70
  7  22 0.51
  8   1 0.55
  8   2 0.59
  8   3 0.66
  8   4 0.33
  8   5 0.71
  8   6 0.73
  8   7 0.45
  8   8 0.56
  8   9 0.64
  8  10 0.69
  8  11 0.68
  8  12 0.66
  8  13 0.69
  8  14 0.58
  8  15 0.76
  8  16 0.74
  8  17 0.69
  8  18 0.60
  8  19 0.69
  8  20 0.65
  8  21 0.67
  8  22 0.54
  9   1 0.47
  9   2 0.44
  9   3 0.77
  9   4 0.32
  9   5 0.70
  9   6 0.69
  9   7 0.45
  9   8 0.63
  9   9 0.64
  9  10 0.67
  9  11 0.61
  9  12 0.56
  9  13 0.66
  9  14 0.34
  9  15 0.78
  9  16 0.47
  9  17 0.54
  9  18 0.63
  9  19 0.65
  9  20 0.69
  9  21 0.63
  9  22 0.45
 10   1 0.49
 10   2 0.49
 10   3 0.74
 10   4 0.29
 10   5 0.69
 10   6 0.78
 10   7 0.46
 10   8 0.62
 10   9 0.59
 10  10 0.70
 10  11 0.61
 10  12 0.58
 10  13 0.65
 10  14 0.44
 10  15 0.79
 10  16 0.59
 10  17 0.62
 10  18 0.70
 10  19 0.70
 10  20 0.70
 10  21 0.72
 10  22 0.48
 11   1 0.53
 11   2 0.51
 11   3 0.72
 11   4 0.36
 11   5 0.65
 11   6 0.75
 11   7 0.51
 11   8 0.63
 11   9 0.63
 11  10 0.69
 11  11 0.55
 11  12 0.63
 11  13 0.66
 11  14 0.39
 11  15 0.73
 11  16 0.53
 11  17 0.58
 11  18 0.65
 11  19 0.65
 11  20 0.63
 11  21 0.67
 11  22 0.50
 12   1 0.43
 12   2 0.45
 12   3 0.69
 12   4 0.27
 12   5 0.64
 12   6 0.64
 12   7 0.45
 12   8 0.56
 12   9 0.64
 12  10 0.65
 12  11 0.72
 12  12 0.55
 12  13 0.65
 12  14 0.45
 12  15 0.71
 12  16 0.61
 12  17 0.62
 12  18 0.60
 12  19 0.66
 12  20 0.70
 12  21 0.60
 12  22 0.45
 13   1 0.51
 13   2 0.56
 13   3 0.44
 13   4 0.26
 13   5 0.64
 13   6 0.67
 13   7 0.22
 13   8 0.38
 13   9 0.53
 13  10 0.67
 13  11 0.42
 13  12 0.62
 13  13 0.49
 13  14 0.46
 13  15 0.63
 13  16 0.43
 13  17 0.55
 13  18 0.49
 13  19 0.61
 13  20 0.51
 13  21 0.50
 13  22 0.50
 14   1 0.51
 14   2 0.56
 14   3 0.72
 14   4 0.33
 14   5 0.66
 14   6 0.71
 14   7 0.48
 14   8 0.54
 14   9 0.68
 14  10 0.68
 14  11 0.65
 14  12 0.57
 14  13 0.67
 14  14 0.56
 14  15 0.65
 14  16 0.70
 14  17 0.66
 14  18 0.58
 14  19 0.65
 14  20 0.64
 14  21 0.62
 14  22 0.55
 15   1 0.51
 15   2 0.49
 15   3 0.68
 15   4 0.28
 15   5 0.66
 15   6 0.72
 15   7 0.41
 15   8 0.59
 15   9 0.68
 15  10 0.68
 15  11 0.64
 15  12 0.60
 15  13 0.63
 15  14 0.49
 15  15 0.70
 15  16 0.60
 15  17 0.60
 15  18 0.61
 15  19 0.64
 15  20 0.69
 15  21 0.63
 15  22 0.52
 16   1 0.42
 16   2 0.48
 16   3 0.68
 16   4 0.25
 16   5 0.62
 16   6 0.67
 16   7 0.44
 16   8 0.60
 16   9 0.60
 16  10 0.66
 16  11 0.62
 16  12 0.57
 16  13 0.65
 16  14 0.43
 16  15 0.74
 16  16 0.56
 16  17 0.61
 16  18 0.70
 16  19 0.70
 16  20 0.73
 16  21 0.68
 16  22 0.41
 17   1 0.42
 17   2 0.48
 17   3 0.62
 17   4 0.26
 17   5 0.59
 17   6 0.57
 17   7 0.52
 17   8 0.59
 17   9 0.62
 17  10 0.56
 17  11 0.68
 17  12 0.53
 17  13 0.69
 17  14 0.46
 17  15 0.63
 17  16 0.57
 17  17 0.63
 17  18 0.54
 17  19 0.61
 17  20 0.65
 17  21 0.55
 17  22 0.41
 18   1 0.38
 18   2 0.54
 18   3 0.68
 18   4 0.24
 18   5 0.75
 18   6 0.62
 18   7 0.30
 18   8 0.54
 18   9 0.57
 18  10 0.63
 18  11 0.65
 18  12 0.59
 18  13 0.54
 18  14 0.59
 18  15 0.77
 18  16 0.62
 18  17 0.71
 18  18 0.65
 18  19 0.77
 18  20 0.75
 18  21 0.64
 18  22 0.50
 19   1 0.57
 19   2 0.68
 19   3 0.64
 19   4 0.41
 19   5 0.71
 19   6 0.65
 19   7 0.51
 19   8 0.63
 19   9 0.66
 19  10 0.68
 19  11 0.60
 19  12 0.65
 19  13 0.72
 19  14 0.55
 19  15 0.66
 19  16 0.55
 19  17 0.65
 19  18 0.59
 19  19 0.67
 19  20 0.67
 19  21 0.52
 19  22 0.54
 20   1 0.39
 20   2 0.48
 20   3 0.70
 20   4 0.24
 20   5 0.67
 20   6 0.64
 20   7 0.41
 20   8 0.66
 20   9 0.62
 20  10 0.65
 20  11 0.60
 20  12 0.55
 20  13 0.58
 20  14 0.48
 20  15 0.76
 20  16 0.49
 20  17 0.62
 20  18 0.69
 20  19 0.73
 20  20 0.79
 20  21 0.68
 20  22 0.47
 21   1 0.33
 21   2 0.45
 21   3 0.70
 21   4 0.19
 21   5 0.65
 21   6 0.56
 21   7 0.26
 21   8 0.51
 21   9 0.51
 21  10 0.56
 21  11 0.68
 21  12 0.47
 21  13 0.51
 21  14 0.49
 21  15 0.73
 21  16 0.54
 21  17 0.61
 21  18 0.58
 21  19 0.70
 21  20 0.76
 21  21 0.60
 21  22 0.44
 22   1 0.39
 22   2 0.51
 22   3 0.63
 22   4 0.25
 22   5 0.58
 22   6 0.56
 22   7 0.41
 22   8 0.55
 22   9 0.58
 22  10 0.53
 22  11 0.66
 22  12 0.43
 22  13 0.53
 22  14 0.49
 22  15 0.62
 22  16 0.69
 22  17 0.57
 22  18 0.51
 22  19 0.55
 22  20 0.62
 22  21 0.68
 22  22 0.43
