  1   1 1.00
  1   2 0.62
  1   3 0.44
  1   4 0.46
  1   5 0.51
  1   6 0.67
  1   7 0.42
  1   8 0.49
  1   9 0.50
  1  10 0.60
  1  11 0.35
  1  12 0.67
  1  13 0.61
  1  14 0.37
  1  15 0.46
  1  16 0.41
  1  17 0.40
  1  18 0.46
  1  19 0.48
  1  20 0.37
  1  21 0.45
  1  22 0.45
  2   1 0.62
  2   2 1.00
  2   3 0.52
  2   4 0.49
  2   5 0.67
  2   6 0.58
  2   7 0.40
  2   8 0.50
  2   9 0.60
  2  10 0.62
  2  11 0.47
  2  12 0.62
  2  13 0.57
  2  14 0.70
  2  15 0.57
  2  16 0.56
  2  17 0.63
  2  18 0.50
  2  19 0.63
  2  20 0.53
  2  21 0.50
  2  22 0.66
  3   1 0.44
  3   2 0.52
  3   3 1.00
  3   4 0.40
  3   5 0.72
  3   6 0.69
  3   7 0.51
  3   8 0.63
  3   9 0.66
  3  10 0.67
  3  11 0.63
  3  12 0.54
  3  13 0.63
  3  14 0.46
  3  15 0.73
  3  16 0.53
  3  17 0.61
  3  18 0.68
  3  19 0.72
  3  20 0.74
  3  21 0.62
  3  22 0.54
  4   1 0.46
  4   2 0.49
  4   3 0.40
  4   4 1.00
  4   5 0.34
  4   6 0.37
  4   7 0.58
  4   8 0.44
  4   9 0.38
  4  10 0.40
  4  11 0.26
  4  12 0.44
  4  13 0.44
  4  14 0.25
  4  15 0.29
  4  16 0.27
  4  17 0.29
  4  18 0.39
  4  19 0.32
  4  20 0.28
  4  21 0.29
  4  22 0.58
  5   1 0.51
  5   2 0.67
  5   3 0.72
  5   4 0.34
  5   5 1.00
  5   6 0.65
  5   7 0.36
  5   8 0.58
  5   9 0.62
  5  10 0.68
  5  11 0.59
  5  12 0.62
  5  13 0.63
  5  14 0.62
  5  15 0.81
  5  16 0.63
  5  17 0.68
  5  18 0.57
  5  19 0.78
  5  20 0.68
  5  21 0.63
  5  22 0.58
  6   1 0.67
  6   2 0.58
  6   3 0.69
  6   4 0.37
  6   5 0.65
  6   6 1.00
  6   7 0.49
  6   8 0.59
  6   9 0.60
  6  10 0.85
  6  11 0.52
  6  12 0.71
  6  13 0.68
  6  14 0.46
  6  15 0.75
  6  16 0.57
  6  17 0.61
  6  18 0.75
  6  19 0.74
  6  20 0.67
  6  21 0.68
  6  22 0.53
  7   1 0.42
  7   2 0.40
  7   3 0.51
  7   4 0.58
  7   5 0.36
  7   6 0.49
  7   7 1.00
  7   8 0.68
  7   9 0.43
  7  10 0.44
  7  11 0.33
  7  12 0.36
  7  13 0.54
  7  14 0.22
  7  15 0.41
  7  16 0.35
  7  17 0.32
  7  18 0.51
  7  19 0.41
  7  20 0.36
  7  21 0.43
  7  22 0.43
  8   1 0.49
  8   2 0.50
  8   3 0.63
  8   4 0.44
  8   5 0.58
  8   6 0.59
  8   7 0.68
  8   8 1.00
  8   9 0.57
  8  10 0.59
  8  11 0.46
  8  12 0.47
  8  13 0.58
  8  14 0.35
  8  15 0.62
  8  16 0.43
  8  17 0.45
  8  18 0.65
  8  19 0.60
  8  20 0.57
  8  21 0.64
  8  22 0.48
  9   1 0.50
  9   2 0.60
  9   3 0.66
  9   4 0.38
  9   5 0.62
  9   6 0.60
  9   7 0.43
  9   8 0.57
  9   9 1.00
  9  10 0.63
  9  11 0.64
  9  12 0.56
  9  13 0.64
  9  14 0.50
  9  15 0.56
  9  16 0.52
  9  17 0.62
  9  18 0.53
  9  19 0.57
  9  20 0.59
  9  21 0.50
  9  22 0.57
 10   1 0.60
 10   2 0.62
 10   3 0.67
 10   4 0.40
 10   5 0.68
 10   6 0.85
 10   7 0.44
 10   8 0.59
 10   9 0.63
 10  10 1.00
 10  11 0.52
 10  12 0.71
 10  13 0.69
 10  14 0.51
 10  15 0.75
 10  16 0.55
 10  17 0.65
 10  18 0.72
 10  19 0.76
 10  20 0.69
 10  21 0.65
 10  22 0.58
 11   1 0.35
 11   2 0.47
 11   3 0.63
 11   4 0.26
 11   5 0.59
 11   6 0.52
 11   7 0.33
 11   8 0.46
 11   9 0.64
 11  10 0.52
 11  11 1.00
 11  12 0.51
 11  13 0.53
 11  14 0.52
 11  15 0.59
 11  16 0.63
 11  17 0.64
 11  18 0.52
 11  19 0.59
 11  20 0.68
 11  21 0.52
 11  22 0.51
 12   1 0.67
 12   2 0.62
 12   3 0.54
 12   4 0.44
 12   5 0.62
 12   6 0.71
 12   7 0.36
 12   8 0.47
 12   9 0.56
 12  10 0.71
 12  11 0.51
 12  12 1.00
 12  13 0.63
 12  14 0.50
 12  15 0.62
 12  16 0.50
 12  17 0.61
 12  18 0.57
 12  19 0.66
 12  20 0.57
 12  21 0.54
 12  22 0.55
 13   1 0.61
 13   2 0.57
 13   3 0.63
 13   4 0.44
 13   5 0.63
 13   6 0.68
 13   7 0.54
 13   8 0.58
 13   9 0.64
 13  10 0.69
 13  11 0.53
 13  12 0.63
 13  13 1.00
 13  14 0.37
 13  15 0.62
 13  16 0.49
 13  17 0.60
 13  18 0.55
 13  19 0.58
 13  20 0.53
 13  21 0.51
 13  22 0.46
 14   1 0.37
 14   2 0.70
 14   3 0.46
 14   4 0.25
 14   5 0.62
 14   6 0.46
 14   7 0.22
 14   8 0.35
 14   9 0.50
 14  10 0.51
 14  11 0.52
 14  12 0.50
 14  13 0.37
 14  14 1.00
 14  15 0.53
 14  16 0.65
 14  17 0.74
 14  18 0.44
 14  19 0.65
 14  20 0.59
 14  21 0.48
 14  22 0.58
 15   1 0.46
 15   2 0.57
 15   3 0.73
 15   4 0.29
 15   5 0.81
 15   6 0.75
 15   7 0.41
 15   8 0.62
 15   9 0.56
 15  10 0.75
 15  11 0.59
 15  12 0.62
 15  13 0.62
 15  14 0.53
 15  15 1.00
 15  16 0.63
 15  17 0.66
 15  18 0.70
 15  19 0.84
 15  20 0.76
 15  21 0.74
 15  22 0.53
 16   1 0.41
 16   2 0.56
 16   3 0.53
 16   4 0.27
 16   5 0.63
 16   6 0.57
 16   7 0.35
 16   8 0.43
 16   9 0.52
 16  10 0.55
 16  11 0.63
 16  12 0.50
 16  13 0.49
 16  14 0.65
 16  15 0.63
 16  16 1.00
 16  17 0.66
 16  18 0.50
 16  19 0.61
 16  20 0.56
 16  21 0.63
 16  22 0.50
 17   1 0.40
 17   2 0.63
 17   3 0.61
 17   4 0.29
 17   5 0.68
 17   6 0.61
 17   7 0.32
 17   8 0.45
 17   9 0.62
 17  10 0.65
 17  11 0.64
 17  12 0.61
 17  13 0.60
 17  14 0.74
 17  15 0.66
 17  16 0.66
 17  17 1.00
 17  18 0.58
 17  19 0.69
 17  20 0.71
 17  21 0.58
 17  22 0.56
 18   1 0.46
 18   2 0.50
 18   3 0.68
 18   4 0.39
 18   5 0.57
 18   6 0.75
 18   7 0.51
 18   8 0.65
 18   9 0.53
 18  10 0.72
 18  11 0.52
 18  12 0.57
 18  13 0.55
 18  14 0.44
 18  15 0.70
 18  16 0.50
 18  17 0.58
 18  18 1.00
 18  19 0.72
 18  20 0.76
 18  21 0.67
 18  22 0.53
 19   1 0.48
 19   2 0.63
 19   3 0.72
 19   4 0.32
 19   5 0.78
 19   6 0.74
 19   7 0.41
 19   8 0.60
 19   9 0.57
 19  10 0.76
 19  11 0.59
 19  12 0.66
 19  13 0.58
 19  14 0.65
 19  15 0.84
 19  16 0.61
 19  17 0.69
 19  18 0.72
 19  19 1.00
 19  20 0.79
 19  21 0.70
 19  22 0.57
 20   1 0.37
 20   2 0.53
 20   3 0.74
 20   4 0.28
 20   5 0.68
 20   6 0.67
 20   7 0.36
 20   8 0.57
 20   9 0.59
 20  10 0.69
 20  11 0.68
 20  12 0.57
 20  13 0.53
 20  14 0.59
 20  15 0.76
 20  16 0.56
 20  17 0.71
 20  18 0.76
 20  19 0.79
 20  20 1.00
 20  21 0.66
 20  22 0.53
 21   1 0.45
 21   2 0.50
 21   3 0.62
 21   4 0.29
 21   5 0.63
 21   6 0.68
 21   7 0.43
 21   8 0.64
 21   9 0.50
 21  10 0.65
 21  11 0.52
 21  12 0.54
 21  13 0.51
 21  14 0.48
 21  15 0.74
 21  16 0.63
 21  17 0.58
 21  18 0.67
 21  19 0.70
 21  20 0.66
 21  21 1.00
 21  22 0.50
 22   1 0.45
 22   2 0.66
 22   3 0.54
 22   4 0.58
 22   5 0.58
 22   6 0.53
 22   7 0.43
 22   8 0.48
 22   9 0.57
 22  10 0.58
 22  11 0.51
 22  12 0.55
 22  13 0.46
 22  14 0.58
 22  15 0.53
 22  16 0.50
 22  17 0.56
 22  18 0.53
 22  19 0.57
 22  20 0.53
 22  21 0.50
 22  22 1.00
  1   1 1.00
  1   2 0.62
  1   3 0.44
  1   4 0.46
  1   5 0.51
  1   6 0.67
  1   7 0.42
  1   8 0.48
  1   9 0.50
  1  10 0.60
  1  11 0.35
  1  12 0.67
  1  13 0.61
  1  14 0.37
  1  15 0.46
  1  16 0.41
  1  17 0.40
  1  18 0.46
  1  19 0.48
  1  20 0.37
  1  21 0.44
  1  22 0.45
  2   1 0.62
  2   2 1.00
  2   3 0.52
  2   4 0.48
  2   5 0.66
  2   6 0.58
  2   7 0.40
  2   8 0.50
  2   9 0.60
  2  10 0.62
  2  11 0.47
  2  12 0.61
  2  13 0.57
  2  14 0.70
  2  15 0.57
  2  16 0.55
  2  17 0.63
  2  18 0.49
  2  19 0.63
  2  20 0.53
  2  21 0.50
  2  22 0.65
  3   1 0.44
  3   2 0.52
  3   3 1.00
  3   4 0.40
  3   5 0.72
  3   6 0.69
  3   7 0.51
  3   8 0.63
  3   9 0.65
  3  10 0.66
  3  11 0.63
  3  12 0.53
  3  13 0.63
  3  14 0.46
  3  15 0.73
  3  16 0.52
  3  17 0.61
  3  18 0.68
  3  19 0.72
  3  20 0.74
  3  21 0.62
  3  22 0.54
  4   1 0.46
  4   2 0.48
  4   3 0.40
  4   4 1.00
  4   5 0.34
  4   6 0.36
  4   7 0.58
  4   8 0.43
  4   9 0.37
  4  10 0.40
  4  11 0.25
  4  12 0.44
  4  13 0.43
  4  14 0.24
  4  15 0.29
  4  16 0.27
  4  17 0.28
  4  18 0.38
  4  19 0.32
  4  20 0.28
  4  21 0.28
  4  22 0.58
  5   1 0.51
  5   2 0.66
  5   3 0.72
  5   4 0.34
  5   5 1.00
  5   6 0.64
  5   7 0.36
  5   8 0.57
  5   9 0.62
  5  10 0.68
  5  11 0.59
  5  12 0.62
  5  13 0.62
  5  14 0.62
  5  15 0.81
  5  16 0.63
  5  17 0.67
  5  18 0.56
  5  19 0.77
  5  20 0.68
  5  21 0.63
  5  22 0.57
  6   1 0.67
  6   2 0.58
  6   3 0.69
  6   4 0.36
  6   5 0.64
  6   6 1.00
  6   7 0.49
  6   8 0.59
  6   9 0.60
  6  10 0.85
  6  11 0.52
  6  12 0.71
  6  13 0.67
  6  14 0.46
  6  15 0.75
  6  16 0.57
  6  17 0.60
  6  18 0.74
  6  19 0.73
  6  20 0.67
  6  21 0.68
  6  22 0.53
  7   1 0.42
  7   2 0.40
  7   3 0.51
  7   4 0.58
  7   5 0.36
  7   6 0.49
  7   7 1.00
  7   8 0.67
  7   9 0.43
  7  10 0.44
  7  11 0.33
  7  12 0.36
  7  13 0.54
  7  14 0.22
  7  15 0.40
  7  16 0.34
  7  17 0.31
  7  18 0.51
  7  19 0.41
  7  20 0.36
  7  21 0.43
  7  22 0.43
  8   1 0.48
  8   2 0.50
  8   3 0.63
  8   4 0.43
  8   5 0.57
  8   6 0.59
  8   7 0.67
  8   8 1.00
  8   9 0.56
  8  10 0.59
  8  11 0.45
  8  12 0.46
  8  13 0.58
  8  14 0.35
  8  15 0.62
  8  16 0.42
  8  17 0.45
  8  18 0.64
  8  19 0.60
  8  20 0.57
  8  21 0.63
  8  22 0.47
  9   1 0.50
  9   2 0.60
  9   3 0.65
  9   4 0.37
  9   5 0.62
  9   6 0.60
  9   7 0.43
  9   8 0.56
  9   9 1.00
  9  10 0.63
  9  11 0.64
  9  12 0.56
  9  13 0.64
  9  14 0.49
  9  15 0.56
  9  16 0.52
  9  17 0.62
  9  18 0.53
  9  19 0.56
  9  20 0.58
  9  21 0.50
  9  22 0.57
 10   1 0.60
 10   2 0.62
 10   3 0.66
 10   4 0.40
 10   5 0.68
 10   6 0.85
 10   7 0.44
 10   8 0.59
 10   9 0.63
 10  10 1.00
 10  11 0.52
 10  12 0.71
 10  13 0.69
 10  14 0.51
 10  15 0.75
 10  16 0.54
 10  17 0.65
 10  18 0.72
 10  19 0.76
 10  20 0.69
 10  21 0.65
 10  22 0.58
 11   1 0.35
 11   2 0.47
 11   3 0.63
 11   4 0.25
 11   5 0.59
 11   6 0.52
 11   7 0.33
 11   8 0.45
 11   9 0.64
 11  10 0.52
 11  11 1.00
 11  12 0.51
 11  13 0.53
 11  14 0.52
 11  15 0.58
 11  16 0.63
 11  17 0.63
 11  18 0.52
 11  19 0.58
 11  20 0.68
 11  21 0.52
 11  22 0.51
 12   1 0.67
 12   2 0.61
 12   3 0.53
 12   4 0.44
 12   5 0.62
 12   6 0.71
 12   7 0.36
 12   8 0.46
 12   9 0.56
 12  10 0.71
 12  11 0.51
 12  12 1.00
 12  13 0.63
 12  14 0.50
 12  15 0.62
 12  16 0.50
 12  17 0.61
 12  18 0.57
 12  19 0.65
 12  20 0.57
 12  21 0.53
 12  22 0.54
 13   1 0.61
 13   2 0.57
 13   3 0.63
 13   4 0.43
 13   5 0.62
 13   6 0.67
 13   7 0.54
 13   8 0.58
 13   9 0.64
 13  10 0.69
 13  11 0.53
 13  12 0.63
 13  13 1.00
 13  14 0.36
 13  15 0.62
 13  16 0.49
 13  17 0.59
 13  18 0.55
 13  19 0.58
 13  20 0.53
 13  21 0.51
 13  22 0.46
 14   1 0.37
 14   2 0.70
 14   3 0.46
 14   4 0.24
 14   5 0.62
 14   6 0.46
 14   7 0.22
 14   8 0.35
 14   9 0.49
 14  10 0.51
 14  11 0.52
 14  12 0.50
 14  13 0.36
 14  14 1.00
 14  15 0.53
 14  16 0.65
 14  17 0.74
 14  18 0.43
 14  19 0.65
 14  20 0.59
 14  21 0.47
 14  22 0.58
 15   1 0.46
 15   2 0.57
 15   3 0.73
 15   4 0.29
 15   5 0.81
 15   6 0.75
 15   7 0.40
 15   8 0.62
 15   9 0.56
 15  10 0.75
 15  11 0.58
 15  12 0.62
 15  13 0.62
 15  14 0.53
 15  15 1.00
 15  16 0.63
 15  17 0.65
 15  18 0.69
 15  19 0.84
 15  20 0.76
 15  21 0.74
 15  22 0.53
 16   1 0.41
 16   2 0.55
 16   3 0.52
 16   4 0.27
 16   5 0.63
 16   6 0.57
 16   7 0.34
 16   8 0.42
 16   9 0.52
 16  10 0.54
 16  11 0.63
 16  12 0.50
 16  13 0.49
 16  14 0.65
 16  15 0.63
 16  16 1.00
 16  17 0.65
 16  18 0.50
 16  19 0.61
 16  20 0.56
 16  21 0.62
 16  22 0.50
 17   1 0.40
 17   2 0.63
 17   3 0.61
 17   4 0.28
 17   5 0.67
 17   6 0.60
 17   7 0.31
 17   8 0.45
 17   9 0.62
 17  10 0.65
 17  11 0.63
 17  12 0.61
 17  13 0.59
 17  14 0.74
 17  15 0.65
 17  16 0.65
 17  17 1.00
 17  18 0.57
 17  19 0.69
 17  20 0.70
 17  21 0.57
 17  22 0.55
 18   1 0.46
 18   2 0.49
 18   3 0.68
 18   4 0.38
 18   5 0.56
 18   6 0.74
 18   7 0.51
 18   8 0.64
 18   9 0.53
 18  10 0.72
 18  11 0.52
 18  12 0.57
 18  13 0.55
 18  14 0.43
 18  15 0.69
 18  16 0.50
 18  17 0.57
 18  18 1.00
 18  19 0.72
 18  20 0.76
 18  21 0.66
 18  22 0.53
 19   1 0.48
 19   2 0.63
 19   3 0.72
 19   4 0.32
 19   5 0.77
 19   6 0.73
 19   7 0.41
 19   8 0.60
 19   9 0.56
 19  10 0.76
 19  11 0.58
 19  12 0.65
 19  13 0.58
 19  14 0.65
 19  15 0.84
 19  16 0.61
 19  17 0.69
 19  18 0.72
 19  19 1.00
 19  20 0.79
 19  21 0.70
 19  22 0.57
 20   1 0.37
 20   2 0.53
 20   3 0.74
 20   4 0.28
 20   5 0.68
 20   6 0.67
 20   7 0.36
 20   8 0.57
 20   9 0.58
 20  10 0.69
 20  11 0.68
 20  12 0.57
 20  13 0.53
 20  14 0.59
 20  15 0.76
 20  16 0.56
 20  17 0.70
 20  18 0.76
 20  19 0.79
 20  20 1.00
 20  21 0.65
 20  22 0.53
 21   1 0.44
 21   2 0.50
 21   3 0.62
 21   4 0.28
 21   5 0.63
 21   6 0.68
 21   7 0.43
 21   8 0.63
 21   9 0.50
 21  10 0.65
 21  11 0.52
 21  12 0.53
 21  13 0.51
 21  14 0.47
 21  15 0.74
 21  16 0.62
 21  17 0.57
 21  18 0.66
 21  19 0.70
 21  20 0.65
 21  21 1.00
 21  22 0.49
 22   1 0.45
 22   2 0.65
 22   3 0.54
 22   4 0.58
 22   5 0.57
 22   6 0.53
 22   7 0.43
 22   8 0.47
 22   9 0.57
 22  10 0.58
 22  11 0.51
 22  12 0.54
 22  13 0.46
 22  14 0.58
 22  15 0.53
 22  16 0.50
 22  17 0.55
 22  18 0.53
 22  19 0.57
 22  20 0.53
 22  21 0.49
 22  22 1.00
  1   1 1.00
  1   2 0.62
  1   3 0.44
  1   4 0.46
  1   5 0.51
  1   6 0.67
  1   7 0.42
  1   8 0.48
  1   9 0.50
  1  10 0.60
  1  11 0.35
  1  12 0.67
  1  13 0.61
  1  14 0.37
  1  15 0.46
  1  16 0.41
  1  17 0.40
  1  18 0.46
  1  19 0.48
  1  20 0.37
  1  21 0.44
  1  22 0.45
  2   1 0.62
  2   2 1.00
  2   3 0.52
  2   4 0.48
  2   5 0.66
  2   6 0.58
  2   7 0.40
  2   8 0.50
  2   9 0.60
  2  10 0.62
  2  11 0.47
  2  12 0.61
  2  13 0.57
  2  14 0.70
  2  15 0.57
  2  16 0.55
  2  17 0.63
  2  18 0.49
  2  19 0.63
  2  20 0.53
  2  21 0.50
  2  22 0.65
  3   1 0.44
  3   2 0.52
  3   3 1.00
  3   4 0.40
  3   5 0.72
  3   6 0.69
  3   7 0.51
  3   8 0.63
  3   9 0.65
  3  10 0.66
  3  11 0.63
  3  12 0.53
  3  13 0.63
  3  14 0.46
  3  15 0.73
  3  16 0.52
  3  17 0.61
  3  18 0.68
  3  19 0.72
  3  20 0.74
  3  21 0.62
  3  22 0.54
  4   1 0.46
  4   2 0.48
  4   3 0.40
  4   4 1.00
  4   5 0.34
  4   6 0.36
  4   7 0.58
  4   8 0.43
  4   9 0.37
  4  10 0.40
  4  11 0.25
  4  12 0.44
  4  13 0.43
  4  14 0.24
  4  15 0.29
  4  16 0.27
  4  17 0.28
  4  18 0.38
  4  19 0.32
  4  20 0.28
  4  21 0.28
  4  22 0.58
  5   1 0.51
  5   2 0.66
  5   3 0.72
  5   4 0.34
  5   5 1.00
  5   6 0.64
  5   7 0.36
  5   8 0.57
  5   9 0.62
  5  10 0.68
  5  11 0.59
  5  12 0.62
  5  13 0.62
  5  14 0.62
  5  15 0.81
  5  16 0.63
  5  17 0.67
  5  18 0.56
  5  19 0.77
  5  20 0.68
  5  21 0.63
  5  22 0.57
  6   1 0.67
  6   2 0.58
  6   3 0.69
  6   4 0.36
  6   5 0.64
  6   6 1.00
  6   7 0.49
  6   8 0.59
  6   9 0.60
  6  10 0.85
  6  11 0.52
  6  12 0.71
  6  13 0.67
  6  14 0.46
  6  15 0.75
  6  16 0.57
  6  17 0.60
  6  18 0.74
  6  19 0.73
  6  20 0.67
  6  21 0.68
  6  22 0.53
  7   1 0.42
  7   2 0.40
  7   3 0.51
  7   4 0.58
  7   5 0.36
  7   6 0.49
  7   7 1.00
  7   8 0.67
  7   9 0.43
  7  10 0.44
  7  11 0.33
  7  12 0.36
  7  13 0.54
  7  14 0.22
  7  15 0.40
  7  16 0.34
  7  17 0.31
  7  18 0.51
  7  19 0.41
  7  20 0.36
  7  21 0.43
  7  22 0.43
  8   1 0.48
  8   2 0.50
  8   3 0.63
  8   4 0.43
  8   5 0.57
  8   6 0.59
  8   7 0.67
  8   8 1.00
  8   9 0.56
  8  10 0.59
  8  11 0.45
  8  12 0.46
  8  13 0.58
  8  14 0.35
  8  15 0.62
  8  16 0.42
  8  17 0.45
  8  18 0.64
  8  19 0.60
  8  20 0.57
  8  21 0.63
  8  22 0.47
  9   1 0.50
  9   2 0.60
  9   3 0.65
  9   4 0.37
  9   5 0.62
  9   6 0.60
  9   7 0.43
  9   8 0.56
  9   9 1.00
  9  10 0.63
  9  11 0.64
  9  12 0.56
  9  13 0.64
  9  14 0.49
  9  15 0.56
  9  16 0.52
  9  17 0.62
  9  18 0.53
  9  19 0.56
  9  20 0.58
  9  21 0.50
  9  22 0.57
 10   1 0.60
 10   2 0.62
 10   3 0.66
 10   4 0.40
 10   5 0.68
 10   6 0.85
 10   7 0.44
 10   8 0.59
 10   9 0.63
 10  10 1.00
 10  11 0.52
 10  12 0.71
 10  13 0.69
 10  14 0.51
 10  15 0.75
 10  16 0.54
 10  17 0.65
 10  18 0.72
 10  19 0.76
 10  20 0.69
 10  21 0.65
 10  22 0.58
 11   1 0.35
 11   2 0.47
 11   3 0.63
 11   4 0.25
 11   5 0.59
 11   6 0.52
 11   7 0.33
 11   8 0.45
 11   9 0.64
 11  10 0.52
 11  11 1.00
 11  12 0.51
 11  13 0.53
 11  14 0.52
 11  15 0.58
 11  16 0.63
 11  17 0.63
 11  18 0.52
 11  19 0.58
 11  20 0.68
 11  21 0.52
 11  22 0.51
 12   1 0.67
 12   2 0.61
 12   3 0.53
 12   4 0.44
 12   5 0.62
 12   6 0.71
 12   7 0.36
 12   8 0.46
 12   9 0.56
 12  10 0.71
 12  11 0.51
 12  12 1.00
 12  13 0.63
 12  14 0.50
 12  15 0.62
 12  16 0.50
 12  17 0.61
 12  18 0.57
 12  19 0.65
 12  20 0.57
 12  21 0.53
 12  22 0.54
 13   1 0.61
 13   2 0.57
 13   3 0.63
 13   4 0.43
 13   5 0.62
 13   6 0.67
 13   7 0.54
 13   8 0.58
 13   9 0.64
 13  10 0.69
 13  11 0.53
 13  12 0.63
 13  13 1.00
 13  14 0.36
 13  15 0.62
 13  16 0.49
 13  17 0.59
 13  18 0.55
 13  19 0.58
 13  20 0.53
 13  21 0.51
 13  22 0.46
 14   1 0.37
 14   2 0.70
 14   3 0.46
 14   4 0.24
 14   5 0.62
 14   6 0.46
 14   7 0.22
 14   8 0.35
 14   9 0.49
 14  10 0.51
 14  11 0.52
 14  12 0.50
 14  13 0.36
 14  14 1.00
 14  15 0.53
 14  16 0.65
 14  17 0.74
 14  18 0.43
 14  19 0.65
 14  20 0.59
 14  21 0.47
 14  22 0.58
 15   1 0.46
 15   2 0.57
 15   3 0.73
 15   4 0.29
 15   5 0.81
 15   6 0.75
 15   7 0.40
 15   8 0.62
 15   9 0.56
 15  10 0.75
 15  11 0.58
 15  12 0.62
 15  13 0.62
 15  14 0.53
 15  15 1.00
 15  16 0.63
 15  17 0.65
 15  18 0.69
 15  19 0.84
 15  20 0.76
 15  21 0.74
 15  22 0.53
 16   1 0.41
 16   2 0.55
 16   3 0.52
 16   4 0.27
 16   5 0.63
 16   6 0.57
 16   7 0.34
 16   8 0.42
 16   9 0.52
 16  10 0.54
 16  11 0.63
 16  12 0.50
 16  13 0.49
 16  14 0.65
 16  15 0.63
 16  16 1.00
 16  17 0.65
 16  18 0.50
 16  19 0.61
 16  20 0.56
 16  21 0.62
 16  22 0.50
 17   1 0.40
 17   2 0.63
 17   3 0.61
 17   4 0.28
 17   5 0.67
 17   6 0.60
 17   7 0.31
 17   8 0.45
 17   9 0.62
 17  10 0.65
 17  11 0.63
 17  12 0.61
 17  13 0.59
 17  14 0.74
 17  15 0.65
 17  16 0.65
 17  17 1.00
 17  18 0.57
 17  19 0.69
 17  20 0.70
 17  21 0.57
 17  22 0.55
 18   1 0.46
 18   2 0.49
 18   3 0.68
 18   4 0.38
 18   5 0.56
 18   6 0.74
 18   7 0.51
 18   8 0.64
 18   9 0.53
 18  10 0.72
 18  11 0.52
 18  12 0.57
 18  13 0.55
 18  14 0.43
 18  15 0.69
 18  16 0.50
 18  17 0.57
 18  18 1.00
 18  19 0.72
 18  20 0.76
 18  21 0.66
 18  22 0.53
 19   1 0.48
 19   2 0.63
 19   3 0.72
 19   4 0.32
 19   5 0.77
 19   6 0.73
 19   7 0.41
 19   8 0.60
 19   9 0.56
 19  10 0.76
 19  11 0.58
 19  12 0.65
 19  13 0.58
 19  14 0.65
 19  15 0.84
 19  16 0.61
 19  17 0.69
 19  18 0.72
 19  19 1.00
 19  20 0.79
 19  21 0.70
 19  22 0.57
 20   1 0.37
 20   2 0.53
 20   3 0.74
 20   4 0.28
 20   5 0.68
 20   6 0.67
 20   7 0.36
 20   8 0.57
 20   9 0.58
 20  10 0.69
 20  11 0.68
 20  12 0.57
 20  13 0.53
 20  14 0.59
 20  15 0.76
 20  16 0.56
 20  17 0.70
 20  18 0.76
 20  19 0.79
 20  20 1.00
 20  21 0.65
 20  22 0.53
 21   1 0.44
 21   2 0.50
 21   3 0.62
 21   4 0.28
 21   5 0.63
 21   6 0.68
 21   7 0.43
 21   8 0.63
 21   9 0.50
 21  10 0.65
 21  11 0.52
 21  12 0.53
 21  13 0.51
 21  14 0.47
 21  15 0.74
 21  16 0.62
 21  17 0.57
 21  18 0.66
 21  19 0.70
 21  20 0.65
 21  21 1.00
 21  22 0.49
 22   1 0.45
 22   2 0.65
 22   3 0.54
 22   4 0.58
 22   5 0.57
 22   6 0.53
 22   7 0.43
 22   8 0.47
 22   9 0.57
 22  10 0.58
 22  11 0.51
 22  12 0.54
 22  13 0.46
 22  14 0.58
 22  15 0.53
 22  16 0.50
 22  17 0.55
 22  18 0.53
 22  19 0.57
 22  20 0.53
 22  21 0.49
 22  22 1.00
