  1   1 1.00
  1   2 0.71
  1   3 0.48
  1   4 0.63
  1   5 0.43
  1   6 0.63
  1   7 0.61
  1   8 0.55
  1   9 0.61
  1  10 0.57
  1  11 0.44
  1  12 0.68
  1  13 0.62
  1  14 0.55
  1  15 0.54
  1  16 0.53
  1  17 0.49
  1  18 0.57
  1  19 0.61
  1  20 0.46
  1  21 0.58
  1  22 0.52
  2   1 0.71
  2   2 1.00
  2   3 0.50
  2   4 0.58
  2   5 0.49
  2   6 0.72
  2   7 0.65
  2   8 0.64
  2   9 0.62
  2  10 0.59
  2  11 0.46
  2  12 0.68
  2  13 0.66
  2  14 0.58
  2  15 0.60
  2  16 0.56
  2  17 0.50
  2  18 0.57
  2  19 0.64
  2  20 0.47
  2  21 0.64
  2  22 0.45
  3   1 0.48
  3   2 0.50
  3   3 1.00
  3   4 0.60
  3   5 0.75
  3   6 0.72
  3   7 0.47
  3   8 0.82
  3   9 0.69
  3  10 0.70
  3  11 0.67
  3  12 0.59
  3  13 0.66
  3  14 0.67
  3  15 0.77
  3  16 0.67
  3  17 0.69
  3  18 0.69
  3  19 0.71
  3  20 0.79
  3  21 0.75
  3  22 0.37
  4   1 0.63
  4   2 0.58
  4   3 0.60
  4   4 1.00
  4   5 0.51
  4   6 0.67
  4   7 0.53
  4   8 0.58
  4   9 0.71
  4  10 0.53
  4  11 0.45
  4  12 0.63
  4  13 0.61
  4  14 0.68
  4  15 0.59
  4  16 0.51
  4  17 0.47
  4  18 0.59
  4  19 0.68
  4  20 0.57
  4  21 0.62
  4  22 0.40
  5   1 0.43
  5   2 0.49
  5   3 0.75
  5   4 0.51
  5   5 1.00
  5   6 0.66
  5   7 0.43
  5   8 0.66
  5   9 0.65
  5  10 0.74
  5  11 0.74
  5  12 0.57
  5  13 0.65
  5  14 0.63
  5  15 0.78
  5  16 0.58
  5  17 0.75
  5  18 0.72
  5  19 0.67
  5  20 0.72
  5  21 0.70
  5  22 0.30
  6   1 0.63
  6   2 0.72
  6   3 0.72
  6   4 0.67
  6   5 0.66
  6   6 1.00
  6   7 0.65
  6   8 0.71
  6   9 0.72
  6  10 0.66
  6  11 0.62
  6  12 0.73
  6  13 0.77
  6  14 0.73
  6  15 0.71
  6  16 0.63
  6  17 0.69
  6  18 0.74
  6  19 0.78
  6  20 0.68
  6  21 0.74
  6  22 0.43
  7   1 0.61
  7   2 0.65
  7   3 0.47
  7   4 0.53
  7   5 0.43
  7   6 0.65
  7   7 1.00
  7   8 0.60
  7   9 0.48
  7  10 0.48
  7  11 0.40
  7  12 0.65
  7  13 0.58
  7  14 0.40
  7  15 0.48
  7  16 0.53
  7  17 0.45
  7  18 0.60
  7  19 0.51
  7  20 0.41
  7  21 0.52
  7  22 0.33
  8   1 0.55
  8   2 0.64
  8   3 0.82
  8   4 0.58
  8   5 0.66
  8   6 0.71
  8   7 0.60
  8   8 1.00
  8   9 0.65
  8  10 0.70
  8  11 0.56
  8  12 0.63
  8  13 0.64
  8  14 0.58
  8  15 0.73
  8  16 0.71
  8  17 0.64
  8  18 0.73
  8  19 0.67
  8  20 0.66
  8  21 0.74
  8  22 0.35
  9   1 0.61
  9   2 0.62
  9   3 0.69
  9   4 0.71
  9   5 0.65
  9   6 0.72
  9   7 0.48
  9   8 0.65
  9   9 1.00
  9  10 0.63
  9  11 0.68
  9  12 0.66
  9  13 0.78
  9  14 0.77
  9  15 0.67
  9  16 0.54
  9  17 0.64
  9  18 0.69
  9  19 0.71
  9  20 0.74
  9  21 0.67
  9  22 0.49
 10   1 0.57
 10   2 0.59
 10   3 0.70
 10   4 0.53
 10   5 0.74
 10   6 0.66
 10   7 0.48
 10   8 0.70
 10   9 0.63
 10  10 1.00
 10  11 0.65
 10  12 0.69
 10  13 0.69
 10  14 0.58
 10  15 0.83
 10  16 0.64
 10  17 0.66
 10  18 0.77
 10  19 0.68
 10  20 0.69
 10  21 0.72
 10  22 0.37
 11   1 0.44
 11   2 0.46
 11   3 0.67
 11   4 0.45
 11   5 0.74
 11   6 0.62
 11   7 0.40
 11   8 0.56
 11   9 0.68
 11  10 0.65
 11  11 1.00
 11  12 0.56
 11  13 0.72
 11  14 0.60
 11  15 0.70
 11  16 0.47
 11  17 0.73
 11  18 0.70
 11  19 0.63
 11  20 0.76
 11  21 0.64
 11  22 0.39
 12   1 0.68
 12   2 0.68
 12   3 0.59
 12   4 0.63
 12   5 0.57
 12   6 0.73
 12   7 0.65
 12   8 0.63
 12   9 0.66
 12  10 0.69
 12  11 0.56
 12  12 1.00
 12  13 0.78
 12  14 0.63
 12  15 0.70
 12  16 0.62
 12  17 0.57
 12  18 0.74
 12  19 0.69
 12  20 0.60
 12  21 0.69
 12  22 0.44
 13   1 0.62
 13   2 0.66
 13   3 0.66
 13   4 0.61
 13   5 0.65
 13   6 0.77
 13   7 0.58
 13   8 0.64
 13   9 0.78
 13  10 0.69
 13  11 0.72
 13  12 0.78
 13  13 1.00
 13  14 0.66
 13  15 0.71
 13  16 0.57
 13  17 0.70
 13  18 0.75
 13  19 0.68
 13  20 0.68
 13  21 0.71
 13  22 0.42
 14   1 0.55
 14   2 0.58
 14   3 0.67
 14   4 0.68
 14   5 0.63
 14   6 0.73
 14   7 0.40
 14   8 0.58
 14   9 0.77
 14  10 0.58
 14  11 0.60
 14  12 0.63
 14  13 0.66
 14  14 1.00
 14  15 0.71
 14  16 0.57
 14  17 0.58
 14  18 0.64
 14  19 0.82
 14  20 0.71
 14  21 0.72
 14  22 0.41
 15   1 0.54
 15   2 0.60
 15   3 0.77
 15   4 0.59
 15   5 0.78
 15   6 0.71
 15   7 0.48
 15   8 0.73
 15   9 0.67
 15  10 0.83
 15  11 0.70
 15  12 0.70
 15  13 0.71
 15  14 0.71
 15  15 1.00
 15  16 0.68
 15  17 0.70
 15  18 0.81
 15  19 0.81
 15  20 0.73
 15  21 0.80
 15  22 0.35
 16   1 0.53
 16   2 0.56
 16   3 0.67
 16   4 0.51
 16   5 0.58
 16   6 0.63
 16   7 0.53
 16   8 0.71
 16   9 0.54
 16  10 0.64
 16  11 0.47
 16  12 0.62
 16  13 0.57
 16  14 0.57
 16  15 0.68
 16  16 1.00
 16  17 0.58
 16  18 0.64
 16  19 0.62
 16  20 0.58
 16  21 0.76
 16  22 0.37
 17   1 0.49
 17   2 0.50
 17   3 0.69
 17   4 0.47
 17   5 0.75
 17   6 0.69
 17   7 0.45
 17   8 0.64
 17   9 0.64
 17  10 0.66
 17  11 0.73
 17  12 0.57
 17  13 0.70
 17  14 0.58
 17  15 0.70
 17  16 0.58
 17  17 1.00
 17  18 0.73
 17  19 0.61
 17  20 0.71
 17  21 0.70
 17  22 0.28
 18   1 0.57
 18   2 0.57
 18   3 0.69
 18   4 0.59
 18   5 0.72
 18   6 0.74
 18   7 0.60
 18   8 0.73
 18   9 0.69
 18  10 0.77
 18  11 0.70
 18  12 0.74
 18  13 0.75
 18  14 0.64
 18  15 0.81
 18  16 0.64
 18  17 0.73
 18  18 1.00
 18  19 0.73
 18  20 0.74
 18  21 0.73
 18  22 0.35
 19   1 0.61
 19   2 0.64
 19   3 0.71
 19   4 0.68
 19   5 0.67
 19   6 0.78
 19   7 0.51
 19   8 0.67
 19   9 0.71
 19  10 0.68
 19  11 0.63
 19  12 0.69
 19  13 0.68
 19  14 0.82
 19  15 0.81
 19  16 0.62
 19  17 0.61
 19  18 0.73
 19  19 1.00
 19  20 0.70
 19  21 0.76
 19  22 0.41
 20   1 0.46
 20   2 0.47
 20   3 0.79
 20   4 0.57
 20   5 0.72
 20   6 0.68
 20   7 0.41
 20   8 0.66
 20   9 0.74
 20  10 0.69
 20  11 0.76
 20  12 0.60
 20  13 0.68
 20  14 0.71
 20  15 0.73
 20  16 0.58
 20  17 0.71
 20  18 0.74
 20  19 0.70
 20  20 1.00
 20  21 0.71
 20  22 0.38
 21   1 0.58
 21   2 0.64
 21   3 0.75
 21   4 0.62
 21   5 0.70
 21   6 0.74
 21   7 0.52
 21   8 0.74
 21   9 0.67
 21  10 0.72
 21  11 0.64
 21  12 0.69
 21  13 0.71
 21  14 0.72
 21  15 0.80
 21  16 0.76
 21  17 0.70
 21  18 0.73
 21  19 0.76
 21  20 0.71
 21  21 1.00
 21  22 0.40
 22   1 0.52
 22   2 0.45
 22   3 0.37
 22   4 0.40
 22   5 0.30
 22   6 0.43
 22   7 0.33
 22   8 0.35
 22   9 0.49
 22  10 0.37
 22  11 0.39
 22  12 0.44
 22  13 0.42
 22  14 0.41
 22  15 0.35
 22  16 0.37
 22  17 0.28
 22  18 0.35
 22  19 0.41
 22  20 0.38
 22  21 0.40
 22  22 1.00
  1   1 1.00
  1   2 0.71
  1   3 0.48
  1   4 0.63
  1   5 0.43
  1   6 0.63
  1   7 0.61
  1   8 0.55
  1   9 0.60
  1  10 0.57
  1  11 0.44
  1  12 0.67
  1  13 0.62
  1  14 0.55
  1  15 0.54
  1  16 0.53
  1  17 0.48
  1  18 0.57
  1  19 0.60
  1  20 0.46
  1  21 0.58
  1  22 0.52
  2   1 0.71
  2   2 1.00
  2   3 0.50
  2   4 0.57
  2   5 0.49
  2   6 0.72
  2   7 0.64
  2   8 0.63
  2   9 0.61
  2  10 0.59
  2  11 0.46
  2  12 0.68
  2  13 0.65
  2  14 0.58
  2  15 0.59
  2  16 0.56
  2  17 0.50
  2  18 0.57
  2  19 0.64
  2  20 0.46
  2  21 0.63
  2  22 0.44
  3   1 0.48
  3   2 0.50
  3   3 1.00
  3   4 0.60
  3   5 0.75
  3   6 0.72
  3   7 0.47
  3   8 0.82
  3   9 0.69
  3  10 0.70
  3  11 0.67
  3  12 0.59
  3  13 0.65
  3  14 0.66
  3  15 0.77
  3  16 0.66
  3  17 0.69
  3  18 0.69
  3  19 0.71
  3  20 0.79
  3  21 0.74
  3  22 0.36
  4   1 0.63
  4   2 0.57
  4   3 0.60
  4   4 1.00
  4   5 0.51
  4   6 0.67
  4   7 0.52
  4   8 0.57
  4   9 0.71
  4  10 0.53
  4  11 0.45
  4  12 0.63
  4  13 0.61
  4  14 0.68
  4  15 0.59
  4  16 0.50
  4  17 0.47
  4  18 0.58
  4  19 0.67
  4  20 0.57
  4  21 0.62
  4  22 0.40
  5   1 0.43
  5   2 0.49
  5   3 0.75
  5   4 0.51
  5   5 1.00
  5   6 0.66
  5   7 0.42
  5   8 0.66
  5   9 0.65
  5  10 0.74
  5  11 0.74
  5  12 0.56
  5  13 0.65
  5  14 0.63
  5  15 0.78
  5  16 0.58
  5  17 0.75
  5  18 0.72
  5  19 0.67
  5  20 0.71
  5  21 0.70
  5  22 0.29
  6   1 0.63
  6   2 0.72
  6   3 0.72
  6   4 0.67
  6   5 0.66
  6   6 1.00
  6   7 0.65
  6   8 0.70
  6   9 0.72
  6  10 0.66
  6  11 0.62
  6  12 0.73
  6  13 0.76
  6  14 0.73
  6  15 0.71
  6  16 0.63
  6  17 0.68
  6  18 0.74
  6  19 0.77
  6  20 0.68
  6  21 0.74
  6  22 0.42
  7   1 0.61
  7   2 0.64
  7   3 0.47
  7   4 0.52
  7   5 0.42
  7   6 0.65
  7   7 1.00
  7   8 0.60
  7   9 0.48
  7  10 0.47
  7  11 0.40
  7  12 0.64
  7  13 0.58
  7  14 0.40
  7  15 0.47
  7  16 0.53
  7  17 0.45
  7  18 0.60
  7  19 0.51
  7  20 0.41
  7  21 0.51
  7  22 0.33
  8   1 0.55
  8   2 0.63
  8   3 0.82
  8   4 0.57
  8   5 0.66
  8   6 0.70
  8   7 0.60
  8   8 1.00
  8   9 0.64
  8  10 0.70
  8  11 0.56
  8  12 0.62
  8  13 0.64
  8  14 0.58
  8  15 0.73
  8  16 0.70
  8  17 0.63
  8  18 0.73
  8  19 0.67
  8  20 0.66
  8  21 0.74
  8  22 0.34
  9   1 0.60
  9   2 0.61
  9   3 0.69
  9   4 0.71
  9   5 0.65
  9   6 0.72
  9   7 0.48
  9   8 0.64
  9   9 1.00
  9  10 0.63
  9  11 0.68
  9  12 0.65
  9  13 0.77
  9  14 0.77
  9  15 0.67
  9  16 0.53
  9  17 0.64
  9  18 0.68
  9  19 0.71
  9  20 0.74
  9  21 0.67
  9  22 0.48
 10   1 0.57
 10   2 0.59
 10   3 0.70
 10   4 0.53
 10   5 0.74
 10   6 0.66
 10   7 0.47
 10   8 0.70
 10   9 0.63
 10  10 1.00
 10  11 0.65
 10  12 0.68
 10  13 0.69
 10  14 0.58
 10  15 0.83
 10  16 0.64
 10  17 0.66
 10  18 0.77
 10  19 0.67
 10  20 0.69
 10  21 0.71
 10  22 0.37
 11   1 0.44
 11   2 0.46
 11   3 0.67
 11   4 0.45
 11   5 0.74
 11   6 0.62
 11   7 0.40
 11   8 0.56
 11   9 0.68
 11  10 0.65
 11  11 1.00
 11  12 0.56
 11  13 0.72
 11  14 0.60
 11  15 0.69
 11  16 0.47
 11  17 0.73
 11  18 0.70
 11  19 0.63
 11  20 0.76
 11  21 0.64
 11  22 0.38
 12   1 0.67
 12   2 0.68
 12   3 0.59
 12   4 0.63
 12   5 0.56
 12   6 0.73
 12   7 0.64
 12   8 0.62
 12   9 0.65
 12  10 0.68
 12  11 0.56
 12  12 1.00
 12  13 0.78
 12  14 0.63
 12  15 0.69
 12  16 0.62
 12  17 0.57
 12  18 0.74
 12  19 0.69
 12  20 0.60
 12  21 0.68
 12  22 0.44
 13   1 0.62
 13   2 0.65
 13   3 0.65
 13   4 0.61
 13   5 0.65
 13   6 0.76
 13   7 0.58
 13   8 0.64
 13   9 0.77
 13  10 0.69
 13  11 0.72
 13  12 0.78
 13  13 1.00
 13  14 0.66
 13  15 0.71
 13  16 0.57
 13  17 0.70
 13  18 0.75
 13  19 0.68
 13  20 0.68
 13  21 0.71
 13  22 0.41
 14   1 0.55
 14   2 0.58
 14   3 0.66
 14   4 0.68
 14   5 0.63
 14   6 0.73
 14   7 0.40
 14   8 0.58
 14   9 0.77
 14  10 0.58
 14  11 0.60
 14  12 0.63
 14  13 0.66
 14  14 1.00
 14  15 0.70
 14  16 0.56
 14  17 0.58
 14  18 0.64
 14  19 0.81
 14  20 0.70
 14  21 0.72
 14  22 0.41
 15   1 0.54
 15   2 0.59
 15   3 0.77
 15   4 0.59
 15   5 0.78
 15   6 0.71
 15   7 0.47
 15   8 0.73
 15   9 0.67
 15  10 0.83
 15  11 0.69
 15  12 0.69
 15  13 0.71
 15  14 0.70
 15  15 1.00
 15  16 0.68
 15  17 0.70
 15  18 0.81
 15  19 0.81
 15  20 0.73
 15  21 0.80
 15  22 0.34
 16   1 0.53
 16   2 0.56
 16   3 0.66
 16   4 0.50
 16   5 0.58
 16   6 0.63
 16   7 0.53
 16   8 0.70
 16   9 0.53
 16  10 0.64
 16  11 0.47
 16  12 0.62
 16  13 0.57
 16  14 0.56
 16  15 0.68
 16  16 1.00
 16  17 0.57
 16  18 0.63
 16  19 0.62
 16  20 0.57
 16  21 0.76
 16  22 0.37
 17   1 0.48
 17   2 0.50
 17   3 0.69
 17   4 0.47
 17   5 0.75
 17   6 0.68
 17   7 0.45
 17   8 0.63
 17   9 0.64
 17  10 0.66
 17  11 0.73
 17  12 0.57
 17  13 0.70
 17  14 0.58
 17  15 0.70
 17  16 0.57
 17  17 1.00
 17  18 0.73
 17  19 0.61
 17  20 0.71
 17  21 0.70
 17  22 0.27
 18   1 0.57
 18   2 0.57
 18   3 0.69
 18   4 0.58
 18   5 0.72
 18   6 0.74
 18   7 0.60
 18   8 0.73
 18   9 0.68
 18  10 0.77
 18  11 0.70
 18  12 0.74
 18  13 0.75
 18  14 0.64
 18  15 0.81
 18  16 0.63
 18  17 0.73
 18  18 1.00
 18  19 0.73
 18  20 0.74
 18  21 0.73
 18  22 0.35
 19   1 0.60
 19   2 0.64
 19   3 0.71
 19   4 0.67
 19   5 0.67
 19   6 0.77
 19   7 0.51
 19   8 0.67
 19   9 0.71
 19  10 0.67
 19  11 0.63
 19  12 0.69
 19  13 0.68
 19  14 0.81
 19  15 0.81
 19  16 0.62
 19  17 0.61
 19  18 0.73
 19  19 1.00
 19  20 0.70
 19  21 0.76
 19  22 0.41
 20   1 0.46
 20   2 0.46
 20   3 0.79
 20   4 0.57
 20   5 0.71
 20   6 0.68
 20   7 0.41
 20   8 0.66
 20   9 0.74
 20  10 0.69
 20  11 0.76
 20  12 0.60
 20  13 0.68
 20  14 0.70
 20  15 0.73
 20  16 0.57
 20  17 0.71
 20  18 0.74
 20  19 0.70
 20  20 1.00
 20  21 0.71
 20  22 0.37
 21   1 0.58
 21   2 0.63
 21   3 0.74
 21   4 0.62
 21   5 0.70
 21   6 0.74
 21   7 0.51
 21   8 0.74
 21   9 0.67
 21  10 0.71
 21  11 0.64
 21  12 0.68
 21  13 0.71
 21  14 0.72
 21  15 0.80
 21  16 0.76
 21  17 0.70
 21  18 0.73
 21  19 0.76
 21  20 0.71
 21  21 1.00
 21  22 0.39
 22   1 0.52
 22   2 0.44
 22   3 0.36
 22   4 0.40
 22   5 0.29
 22   6 0.42
 22   7 0.33
 22   8 0.34
 22   9 0.48
 22  10 0.37
 22  11 0.38
 22  12 0.44
 22  13 0.41
 22  14 0.41
 22  15 0.34
 22  16 0.37
 22  17 0.27
 22  18 0.35
 22  19 0.41
 22  20 0.37
 22  21 0.39
 22  22 1.00
  1   1 1.00
  1   2 0.71
  1   3 0.48
  1   4 0.63
  1   5 0.43
  1   6 0.63
  1   7 0.61
  1   8 0.55
  1   9 0.60
  1  10 0.57
  1  11 0.44
  1  12 0.67
  1  13 0.62
  1  14 0.55
  1  15 0.54
  1  16 0.53
  1  17 0.48
  1  18 0.57
  1  19 0.60
  1  20 0.46
  1  21 0.58
  1  22 0.52
  2   1 0.71
  2   2 1.00
  2   3 0.50
  2   4 0.57
  2   5 0.49
  2   6 0.72
  2   7 0.64
  2   8 0.63
  2   9 0.61
  2  10 0.59
  2  11 0.46
  2  12 0.68
  2  13 0.65
  2  14 0.58
  2  15 0.59
  2  16 0.56
  2  17 0.50
  2  18 0.57
  2  19 0.64
  2  20 0.46
  2  21 0.63
  2  22 0.44
  3   1 0.48
  3   2 0.50
  3   3 1.00
  3   4 0.60
  3   5 0.75
  3   6 0.72
  3   7 0.47
  3   8 0.82
  3   9 0.69
  3  10 0.70
  3  11 0.67
  3  12 0.59
  3  13 0.65
  3  14 0.66
  3  15 0.77
  3  16 0.66
  3  17 0.69
  3  18 0.69
  3  19 0.71
  3  20 0.79
  3  21 0.74
  3  22 0.36
  4   1 0.63
  4   2 0.57
  4   3 0.60
  4   4 1.00
  4   5 0.51
  4   6 0.67
  4   7 0.52
  4   8 0.57
  4   9 0.71
  4  10 0.53
  4  11 0.45
  4  12 0.63
  4  13 0.61
  4  14 0.68
  4  15 0.59
  4  16 0.50
  4  17 0.47
  4  18 0.58
  4  19 0.67
  4  20 0.57
  4  21 0.62
  4  22 0.40
  5   1 0.43
  5   2 0.49
  5   3 0.75
  5   4 0.51
  5   5 1.00
  5   6 0.66
  5   7 0.42
  5   8 0.66
  5   9 0.65
  5  10 0.74
  5  11 0.74
  5  12 0.56
  5  13 0.65
  5  14 0.63
  5  15 0.78
  5  16 0.58
  5  17 0.75
  5  18 0.72
  5  19 0.67
  5  20 0.71
  5  21 0.70
  5  22 0.29
  6   1 0.63
  6   2 0.72
  6   3 0.72
  6   4 0.67
  6   5 0.66
  6   6 1.00
  6   7 0.65
  6   8 0.70
  6   9 0.72
  6  10 0.66
  6  11 0.62
  6  12 0.73
  6  13 0.76
  6  14 0.73
  6  15 0.71
  6  16 0.63
  6  17 0.68
  6  18 0.74
  6  19 0.77
  6  20 0.68
  6  21 0.74
  6  22 0.42
  7   1 0.61
  7   2 0.64
  7   3 0.47
  7   4 0.52
  7   5 0.42
  7   6 0.65
  7   7 1.00
  7   8 0.60
  7   9 0.48
  7  10 0.47
  7  11 0.40
  7  12 0.64
  7  13 0.58
  7  14 0.40
  7  15 0.47
  7  16 0.53
  7  17 0.45
  7  18 0.60
  7  19 0.51
  7  20 0.41
  7  21 0.51
  7  22 0.33
  8   1 0.55
  8   2 0.63
  8   3 0.82
  8   4 0.57
  8   5 0.66
  8   6 0.70
  8   7 0.60
  8   8 1.00
  8   9 0.64
  8  10 0.70
  8  11 0.56
  8  12 0.62
  8  13 0.64
  8  14 0.58
  8  15 0.73
  8  16 0.70
  8  17 0.63
  8  18 0.73
  8  19 0.67
  8  20 0.66
  8  21 0.74
  8  22 0.34
  9   1 0.60
  9   2 0.61
  9   3 0.69
  9   4 0.71
  9   5 0.65
  9   6 0.72
  9   7 0.48
  9   8 0.64
  9   9 1.00
  9  10 0.63
  9  11 0.68
  9  12 0.65
  9  13 0.77
  9  14 0.77
  9  15 0.67
  9  16 0.53
  9  17 0.64
  9  18 0.68
  9  19 0.71
  9  20 0.74
  9  21 0.67
  9  22 0.48
 10   1 0.57
 10   2 0.59
 10   3 0.70
 10   4 0.53
 10   5 0.74
 10   6 0.66
 10   7 0.47
 10   8 0.70
 10   9 0.63
 10  10 1.00
 10  11 0.65
 10  12 0.68
 10  13 0.69
 10  14 0.58
 10  15 0.83
 10  16 0.64
 10  17 0.66
 10  18 0.77
 10  19 0.67
 10  20 0.69
 10  21 0.71
 10  22 0.37
 11   1 0.44
 11   2 0.46
 11   3 0.67
 11   4 0.45
 11   5 0.74
 11   6 0.62
 11   7 0.40
 11   8 0.56
 11   9 0.68
 11  10 0.65
 11  11 1.00
 11  12 0.56
 11  13 0.72
 11  14 0.60
 11  15 0.69
 11  16 0.47
 11  17 0.73
 11  18 0.70
 11  19 0.63
 11  20 0.76
 11  21 0.64
 11  22 0.38
 12   1 0.67
 12   2 0.68
 12   3 0.59
 12   4 0.63
 12   5 0.56
 12   6 0.73
 12   7 0.64
 12   8 0.62
 12   9 0.65
 12  10 0.68
 12  11 0.56
 12  12 1.00
 12  13 0.78
 12  14 0.63
 12  15 0.69
 12  16 0.62
 12  17 0.57
 12  18 0.74
 12  19 0.69
 12  20 0.60
 12  21 0.68
 12  22 0.44
 13   1 0.62
 13   2 0.65
 13   3 0.65
 13   4 0.61
 13   5 0.65
 13   6 0.76
 13   7 0.58
 13   8 0.64
 13   9 0.77
 13  10 0.69
 13  11 0.72
 13  12 0.78
 13  13 1.00
 13  14 0.66
 13  15 0.71
 13  16 0.57
 13  17 0.70
 13  18 0.75
 13  19 0.68
 13  20 0.68
 13  21 0.71
 13  22 0.41
 14   1 0.55
 14   2 0.58
 14   3 0.66
 14   4 0.68
 14   5 0.63
 14   6 0.73
 14   7 0.40
 14   8 0.58
 14   9 0.77
 14  10 0.58
 14  11 0.60
 14  12 0.63
 14  13 0.66
 14  14 1.00
 14  15 0.70
 14  16 0.56
 14  17 0.58
 14  18 0.64
 14  19 0.81
 14  20 0.70
 14  21 0.72
 14  22 0.41
 15   1 0.54
 15   2 0.59
 15   3 0.77
 15   4 0.59
 15   5 0.78
 15   6 0.71
 15   7 0.47
 15   8 0.73
 15   9 0.67
 15  10 0.83
 15  11 0.69
 15  12 0.69
 15  13 0.71
 15  14 0.70
 15  15 1.00
 15  16 0.68
 15  17 0.70
 15  18 0.81
 15  19 0.81
 15  20 0.73
 15  21 0.80
 15  22 0.34
 16   1 0.53
 16   2 0.56
 16   3 0.66
 16   4 0.50
 16   5 0.58
 16   6 0.63
 16   7 0.53
 16   8 0.70
 16   9 0.53
 16  10 0.64
 16  11 0.47
 16  12 0.62
 16  13 0.57
 16  14 0.56
 16  15 0.68
 16  16 1.00
 16  17 0.57
 16  18 0.63
 16  19 0.62
 16  20 0.57
 16  21 0.76
 16  22 0.37
 17   1 0.48
 17   2 0.50
 17   3 0.69
 17   4 0.47
 17   5 0.75
 17   6 0.68
 17   7 0.45
 17   8 0.63
 17   9 0.64
 17  10 0.66
 17  11 0.73
 17  12 0.57
 17  13 0.70
 17  14 0.58
 17  15 0.70
 17  16 0.57
 17  17 1.00
 17  18 0.73
 17  19 0.61
 17  20 0.71
 17  21 0.70
 17  22 0.27
 18   1 0.57
 18   2 0.57
 18   3 0.69
 18   4 0.58
 18   5 0.72
 18   6 0.74
 18   7 0.60
 18   8 0.73
 18   9 0.68
 18  10 0.77
 18  11 0.70
 18  12 0.74
 18  13 0.75
 18  14 0.64
 18  15 0.81
 18  16 0.63
 18  17 0.73
 18  18 1.00
 18  19 0.73
 18  20 0.74
 18  21 0.73
 18  22 0.35
 19   1 0.60
 19   2 0.64
 19   3 0.71
 19   4 0.67
 19   5 0.67
 19   6 0.77
 19   7 0.51
 19   8 0.67
 19   9 0.71
 19  10 0.67
 19  11 0.63
 19  12 0.69
 19  13 0.68
 19  14 0.81
 19  15 0.81
 19  16 0.62
 19  17 0.61
 19  18 0.73
 19  19 1.00
 19  20 0.70
 19  21 0.76
 19  22 0.41
 20   1 0.46
 20   2 0.46
 20   3 0.79
 20   4 0.57
 20   5 0.71
 20   6 0.68
 20   7 0.41
 20   8 0.66
 20   9 0.74
 20  10 0.69
 20  11 0.76
 20  12 0.60
 20  13 0.68
 20  14 0.70
 20  15 0.73
 20  16 0.57
 20  17 0.71
 20  18 0.74
 20  19 0.70
 20  20 1.00
 20  21 0.71
 20  22 0.37
 21   1 0.58
 21   2 0.63
 21   3 0.74
 21   4 0.62
 21   5 0.70
 21   6 0.74
 21   7 0.51
 21   8 0.74
 21   9 0.67
 21  10 0.71
 21  11 0.64
 21  12 0.68
 21  13 0.71
 21  14 0.72
 21  15 0.80
 21  16 0.76
 21  17 0.70
 21  18 0.73
 21  19 0.76
 21  20 0.71
 21  21 1.00
 21  22 0.39
 22   1 0.52
 22   2 0.44
 22   3 0.36
 22   4 0.40
 22   5 0.29
 22   6 0.42
 22   7 0.33
 22   8 0.34
 22   9 0.48
 22  10 0.37
 22  11 0.38
 22  12 0.44
 22  13 0.41
 22  14 0.41
 22  15 0.34
 22  16 0.37
 22  17 0.27
 22  18 0.35
 22  19 0.41
 22  20 0.37
 22  21 0.39
 22  22 1.00
