  1   1 0.95
  1   2 0.60
  1   3 0.40
  1   4 0.44
  1   5 0.46
  1   6 0.65
  1   7 0.39
  1   8 0.44
  1   9 0.47
  1  10 0.59
  1  11 0.33
  1  12 0.65
  1  13 0.59
  1  14 0.36
  1  15 0.44
  1  16 0.41
  1  17 0.39
  1  18 0.46
  1  19 0.46
  1  20 0.35
  1  21 0.43
  1  22 0.45
  2   1 0.58
  2   2 0.92
  2   3 0.44
  2   4 0.40
  2   5 0.61
  2   6 0.53
  2   7 0.33
  2   8 0.44
  2   9 0.52
  2  10 0.57
  2  11 0.41
  2  12 0.56
  2  13 0.52
  2  14 0.67
  2  15 0.51
  2  16 0.51
  2  17 0.59
  2  18 0.44
  2  19 0.55
  2  20 0.48
  2  21 0.47
  2  22 0.60
  3   1 0.49
  3   2 0.56
  3   3 0.89
  3   4 0.35
  3   5 0.76
  3   6 0.71
  3   7 0.45
  3   8 0.61
  3   9 0.66
  3  10 0.72
  3  11 0.69
  3  12 0.61
  3  13 0.65
  3  14 0.55
  3  15 0.79
  3  16 0.63
  3  17 0.68
  3  18 0.67
  3  19 0.78
  3  20 0.79
  3  21 0.66
  3  22 0.56
  4   1 0.51
  4   2 0.56
  4   3 0.37
  4   4 0.87
  4   5 0.39
  4   6 0.38
  4   7 0.43
  4   8 0.41
  4   9 0.41
  4  10 0.44
  4  11 0.30
  4  12 0.48
  4  13 0.44
  4  14 0.31
  4  15 0.32
  4  16 0.33
  4  17 0.32
  4  18 0.36
  4  19 0.33
  4  20 0.29
  4  21 0.32
  4  22 0.56
  5   1 0.49
  5   2 0.72
  5   3 0.66
  5   4 0.31
  5   5 0.90
  5   6 0.62
  5   7 0.34
  5   8 0.55
  5   9 0.64
  5  10 0.66
  5  11 0.65
  5  12 0.61
  5  13 0.58
  5  14 0.74
  5  15 0.75
  5  16 0.69
  5  17 0.73
  5  18 0.57
  5  19 0.76
  5  20 0.70
  5  21 0.58
  5  22 0.60
  6   1 0.67
  6   2 0.62
  6   3 0.58
  6   4 0.40
  6   5 0.60
  6   6 0.88
  6   7 0.53
  6   8 0.58
  6   9 0.55
  6  10 0.77
  6  11 0.47
  6  12 0.74
  6  13 0.69
  6  14 0.49
  6  15 0.67
  6  16 0.58
  6  17 0.59
  6  18 0.67
  6  19 0.67
  6  20 0.56
  6  21 0.61
  6  22 0.51
  7   1 0.49
  7   2 0.41
  7   3 0.40
  7   4 0.38
  7   5 0.35
  7   6 0.51
  7   7 0.73
  7   8 0.64
  7   9 0.40
  7  10 0.47
  7  11 0.30
  7  12 0.43
  7  13 0.59
  7  14 0.22
  7  15 0.42
  7  16 0.32
  7  17 0.30
  7  18 0.45
  7  19 0.41
  7  20 0.34
  7  21 0.44
  7  22 0.35
  8   1 0.49
  8   2 0.47
  8   3 0.50
  8   4 0.34
  8   5 0.54
  8   6 0.58
  8   7 0.57
  8   8 0.88
  8   9 0.49
  8  10 0.60
  8  11 0.42
  8  12 0.47
  8  13 0.60
  8  14 0.35
  8  15 0.63
  8  16 0.45
  8  17 0.45
  8  18 0.58
  8  19 0.58
  8  20 0.51
  8  21 0.63
  8  22 0.41
  9   1 0.48
  9   2 0.62
  9   3 0.77
  9   4 0.37
  9   5 0.76
  9   6 0.65
  9   7 0.38
  9   8 0.58
  9   9 0.84
  9  10 0.69
  9  11 0.63
  9  12 0.62
  9  13 0.69
  9  14 0.52
  9  15 0.70
  9  16 0.49
  9  17 0.69
  9  18 0.56
  9  19 0.69
  9  20 0.67
  9  21 0.53
  9  22 0.57
 10   1 0.61
 10   2 0.58
 10   3 0.66
 10   4 0.39
 10   5 0.67
 10   6 0.86
 10   7 0.44
 10   8 0.59
 10   9 0.62
 10  10 0.96
 10  11 0.52
 10  12 0.74
 10  13 0.72
 10  14 0.46
 10  15 0.75
 10  16 0.53
 10  17 0.65
 10  18 0.74
 10  19 0.75
 10  20 0.69
 10  21 0.66
 10  22 0.56
 11   1 0.38
 11   2 0.47
 11   3 0.70
 11   4 0.28
 11   5 0.61
 11   6 0.56
 11   7 0.38
 11   8 0.53
 11   9 0.66
 11  10 0.56
 11  11 0.94
 11  12 0.53
 11  13 0.57
 11  14 0.49
 11  15 0.62
 11  16 0.58
 11  17 0.64
 11  18 0.59
 11  19 0.62
 11  20 0.73
 11  21 0.56
 11  22 0.53
 12   1 0.57
 12   2 0.67
 12   3 0.61
 12   4 0.39
 12   5 0.70
 12   6 0.71
 12   7 0.39
 12   8 0.51
 12   9 0.62
 12  10 0.72
 12  11 0.62
 12  12 0.87
 12  13 0.65
 12  14 0.64
 12  15 0.70
 12  16 0.62
 12  17 0.74
 12  18 0.62
 12  19 0.75
 12  20 0.67
 12  21 0.59
 12  22 0.61
 13   1 0.59
 13   2 0.57
 13   3 0.59
 13   4 0.42
 13   5 0.57
 13   6 0.64
 13   7 0.56
 13   8 0.58
 13   9 0.62
 13  10 0.66
 13  11 0.48
 13  12 0.63
 13  13 0.93
 13  14 0.35
 13  15 0.58
 13  16 0.45
 13  17 0.57
 13  18 0.51
 13  19 0.56
 13  20 0.48
 13  21 0.48
 13  22 0.42
 14   1 0.44
 14   2 0.70
 14   3 0.44
 14   4 0.29
 14   5 0.64
 14   6 0.53
 14   7 0.24
 14   8 0.39
 14   9 0.47
 14  10 0.59
 14  11 0.50
 14  12 0.58
 14  13 0.40
 14  14 0.87
 14  15 0.58
 14  16 0.60
 14  17 0.72
 14  18 0.54
 14  19 0.68
 14  20 0.62
 14  21 0.53
 14  22 0.61
 15   1 0.50
 15   2 0.56
 15   3 0.72
 15   4 0.30
 15   5 0.76
 15   6 0.79
 15   7 0.42
 15   8 0.65
 15   9 0.57
 15  10 0.79
 15  11 0.56
 15  12 0.65
 15  13 0.65
 15  14 0.49
 15  15 0.93
 15  16 0.58
 15  17 0.66
 15  18 0.76
 15  19 0.81
 15  20 0.78
 15  21 0.74
 15  22 0.52
 16   1 0.50
 16   2 0.58
 16   3 0.59
 16   4 0.31
 16   5 0.67
 16   6 0.72
 16   7 0.37
 16   8 0.50
 16   9 0.56
 16  10 0.72
 16  11 0.61
 16  12 0.61
 16  13 0.57
 16  14 0.60
 16  15 0.75
 16  16 0.86
 16  17 0.67
 16  18 0.66
 16  19 0.75
 16  20 0.68
 16  21 0.69
 16  22 0.55
 17   1 0.42
 17   2 0.64
 17   3 0.58
 17   4 0.29
 17   5 0.70
 17   6 0.60
 17   7 0.30
 17   8 0.45
 17   9 0.59
 17  10 0.65
 17  11 0.61
 17  12 0.65
 17  13 0.60
 17  14 0.71
 17  15 0.68
 17  16 0.64
 17  17 0.95
 17  18 0.56
 17  19 0.69
 17  20 0.68
 17  21 0.59
 17  22 0.56
 18   1 0.48
 18   2 0.54
 18   3 0.63
 18   4 0.37
 18   5 0.59
 18   6 0.72
 18   7 0.52
 18   8 0.64
 18   9 0.55
 18  10 0.72
 18  11 0.54
 18  12 0.61
 18  13 0.58
 18  14 0.48
 18  15 0.71
 18  16 0.56
 18  17 0.60
 18  18 0.91
 18  19 0.73
 18  20 0.73
 18  21 0.65
 18  22 0.49
 19   1 0.53
 19   2 0.58
 19   3 0.65
 19   4 0.30
 19   5 0.73
 19   6 0.77
 19   7 0.43
 19   8 0.65
 19   9 0.55
 19  10 0.77
 19  11 0.53
 19  12 0.66
 19  13 0.59
 19  14 0.54
 19  15 0.83
 19  16 0.58
 19  17 0.62
 19  18 0.75
 19  19 0.91
 19  20 0.70
 19  21 0.71
 19  22 0.52
 20   1 0.38
 20   2 0.44
 20   3 0.68
 20   4 0.25
 20   5 0.62
 20   6 0.69
 20   7 0.34
 20   8 0.56
 20   9 0.55
 20  10 0.70
 20  11 0.55
 20  12 0.56
 20  13 0.52
 20  14 0.44
 20  15 0.75
 20  16 0.46
 20  17 0.60
 20  18 0.73
 20  19 0.71
 20  20 0.86
 20  21 0.64
 20  22 0.46
 21   1 0.50
 21   2 0.48
 21   3 0.55
 21   4 0.28
 21   5 0.57
 21   6 0.72
 21   7 0.46
 21   8 0.66
 21   9 0.49
 21  10 0.67
 21  11 0.51
 21  12 0.59
 21  13 0.54
 21  14 0.39
 21  15 0.70
 21  16 0.55
 21  17 0.54
 21  18 0.72
 21  19 0.65
 21  20 0.63
 21  21 0.88
 21  22 0.43
 22   1 0.59
 22   2 0.68
 22   3 0.48
 22   4 0.41
 22   5 0.63
 22   6 0.64
 22   7 0.32
 22   8 0.43
 22   9 0.50
 22  10 0.64
 22  11 0.48
 22  12 0.67
 22  13 0.48
 22  14 0.66
 22  15 0.61
 22  16 0.52
 22  17 0.60
 22  18 0.54
 22  19 0.63
 22  20 0.52
 22  21 0.58
 22  22 0.76
  1   1 0.94
  1   2 0.59
  1   3 0.39
  1   4 0.44
  1   5 0.45
  1   6 0.65
  1   7 0.38
  1   8 0.44
  1   9 0.46
  1  10 0.59
  1  11 0.33
  1  12 0.64
  1  13 0.59
  1  14 0.36
  1  15 0.43
  1  16 0.40
  1  17 0.38
  1  18 0.46
  1  19 0.46
  1  20 0.35
  1  21 0.42
  1  22 0.44
  2   1 0.57
  2   2 0.92
  2   3 0.43
  2   4 0.40
  2   5 0.61
  2   6 0.53
  2   7 0.33
  2   8 0.44
  2   9 0.52
  2  10 0.57
  2  11 0.40
  2  12 0.55
  2  13 0.51
  2  14 0.66
  2  15 0.50
  2  16 0.51
  2  17 0.58
  2  18 0.43
  2  19 0.55
  2  20 0.48
  2  21 0.47
  2  22 0.60
  3   1 0.49
  3   2 0.56
  3   3 0.89
  3   4 0.35
  3   5 0.76
  3   6 0.71
  3   7 0.45
  3   8 0.60
  3   9 0.66
  3  10 0.72
  3  11 0.69
  3  12 0.61
  3  13 0.65
  3  14 0.54
  3  15 0.79
  3  16 0.62
  3  17 0.68
  3  18 0.66
  3  19 0.78
  3  20 0.79
  3  21 0.65
  3  22 0.56
  4   1 0.50
  4   2 0.55
  4   3 0.37
  4   4 0.87
  4   5 0.38
  4   6 0.38
  4   7 0.42
  4   8 0.41
  4   9 0.41
  4  10 0.43
  4  11 0.30
  4  12 0.47
  4  13 0.43
  4  14 0.30
  4  15 0.32
  4  16 0.32
  4  17 0.32
  4  18 0.35
  4  19 0.33
  4  20 0.28
  4  21 0.32
  4  22 0.56
  5   1 0.49
  5   2 0.72
  5   3 0.66
  5   4 0.31
  5   5 0.90
  5   6 0.61
  5   7 0.34
  5   8 0.54
  5   9 0.64
  5  10 0.66
  5  11 0.65
  5  12 0.61
  5  13 0.58
  5  14 0.74
  5  15 0.74
  5  16 0.69
  5  17 0.72
  5  18 0.57
  5  19 0.76
  5  20 0.70
  5  21 0.58
  5  22 0.59
  6   1 0.67
  6   2 0.61
  6   3 0.58
  6   4 0.40
  6   5 0.60
  6   6 0.88
  6   7 0.53
  6   8 0.58
  6   9 0.55
  6  10 0.77
  6  11 0.47
  6  12 0.74
  6  13 0.68
  6  14 0.48
  6  15 0.67
  6  16 0.57
  6  17 0.58
  6  18 0.67
  6  19 0.67
  6  20 0.55
  6  21 0.61
  6  22 0.50
  7   1 0.48
  7   2 0.41
  7   3 0.39
  7   4 0.38
  7   5 0.35
  7   6 0.50
  7   7 0.72
  7   8 0.63
  7   9 0.40
  7  10 0.47
  7  11 0.30
  7  12 0.42
  7  13 0.59
  7  14 0.21
  7  15 0.41
  7  16 0.31
  7  17 0.29
  7  18 0.45
  7  19 0.40
  7  20 0.33
  7  21 0.43
  7  22 0.34
  8   1 0.49
  8   2 0.46
  8   3 0.50
  8   4 0.33
  8   5 0.53
  8   6 0.58
  8   7 0.57
  8   8 0.88
  8   9 0.48
  8  10 0.60
  8  11 0.41
  8  12 0.47
  8  13 0.59
  8  14 0.34
  8  15 0.62
  8  16 0.44
  8  17 0.44
  8  18 0.57
  8  19 0.57
  8  20 0.51
  8  21 0.63
  8  22 0.40
  9   1 0.48
  9   2 0.61
  9   3 0.76
  9   4 0.37
  9   5 0.76
  9   6 0.65
  9   7 0.38
  9   8 0.57
  9   9 0.84
  9  10 0.69
  9  11 0.63
  9  12 0.62
  9  13 0.68
  9  14 0.51
  9  15 0.70
  9  16 0.49
  9  17 0.69
  9  18 0.55
  9  19 0.69
  9  20 0.67
  9  21 0.53
  9  22 0.57
 10   1 0.61
 10   2 0.58
 10   3 0.66
 10   4 0.39
 10   5 0.67
 10   6 0.86
 10   7 0.44
 10   8 0.58
 10   9 0.62
 10  10 0.96
 10  11 0.52
 10  12 0.73
 10  13 0.71
 10  14 0.46
 10  15 0.75
 10  16 0.53
 10  17 0.64
 10  18 0.73
 10  19 0.74
 10  20 0.69
 10  21 0.65
 10  22 0.55
 11   1 0.38
 11   2 0.47
 11   3 0.69
 11   4 0.27
 11   5 0.61
 11   6 0.56
 11   7 0.38
 11   8 0.53
 11   9 0.66
 11  10 0.56
 11  11 0.93
 11  12 0.53
 11  13 0.57
 11  14 0.48
 11  15 0.62
 11  16 0.58
 11  17 0.64
 11  18 0.58
 11  19 0.62
 11  20 0.72
 11  21 0.56
 11  22 0.53
 12   1 0.57
 12   2 0.66
 12   3 0.61
 12   4 0.39
 12   5 0.70
 12   6 0.70
 12   7 0.39
 12   8 0.50
 12   9 0.61
 12  10 0.71
 12  11 0.62
 12  12 0.87
 12  13 0.64
 12  14 0.64
 12  15 0.70
 12  16 0.61
 12  17 0.73
 12  18 0.61
 12  19 0.74
 12  20 0.67
 12  21 0.59
 12  22 0.61
 13   1 0.59
 13   2 0.56
 13   3 0.59
 13   4 0.42
 13   5 0.57
 13   6 0.64
 13   7 0.56
 13   8 0.57
 13   9 0.61
 13  10 0.66
 13  11 0.48
 13  12 0.62
 13  13 0.93
 13  14 0.34
 13  15 0.58
 13  16 0.44
 13  17 0.57
 13  18 0.51
 13  19 0.56
 13  20 0.48
 13  21 0.48
 13  22 0.42
 14   1 0.44
 14   2 0.69
 14   3 0.44
 14   4 0.29
 14   5 0.64
 14   6 0.52
 14   7 0.24
 14   8 0.38
 14   9 0.47
 14  10 0.59
 14  11 0.50
 14  12 0.58
 14  13 0.40
 14  14 0.87
 14  15 0.58
 14  16 0.59
 14  17 0.72
 14  18 0.54
 14  19 0.68
 14  20 0.61
 14  21 0.52
 14  22 0.61
 15   1 0.49
 15   2 0.56
 15   3 0.72
 15   4 0.30
 15   5 0.75
 15   6 0.79
 15   7 0.42
 15   8 0.65
 15   9 0.57
 15  10 0.79
 15  11 0.56
 15  12 0.65
 15  13 0.64
 15  14 0.49
 15  15 0.93
 15  16 0.58
 15  17 0.65
 15  18 0.76
 15  19 0.81
 15  20 0.78
 15  21 0.74
 15  22 0.51
 16   1 0.50
 16   2 0.57
 16   3 0.59
 16   4 0.31
 16   5 0.67
 16   6 0.72
 16   7 0.37
 16   8 0.49
 16   9 0.55
 16  10 0.72
 16  11 0.61
 16  12 0.61
 16  13 0.56
 16  14 0.60
 16  15 0.74
 16  16 0.86
 16  17 0.66
 16  18 0.65
 16  19 0.75
 16  20 0.68
 16  21 0.69
 16  22 0.55
 17   1 0.41
 17   2 0.63
 17   3 0.58
 17   4 0.29
 17   5 0.69
 17   6 0.60
 17   7 0.29
 17   8 0.44
 17   9 0.59
 17  10 0.64
 17  11 0.61
 17  12 0.64
 17  13 0.60
 17  14 0.71
 17  15 0.68
 17  16 0.64
 17  17 0.95
 17  18 0.55
 17  19 0.68
 17  20 0.68
 17  21 0.58
 17  22 0.55
 18   1 0.47
 18   2 0.53
 18   3 0.63
 18   4 0.37
 18   5 0.58
 18   6 0.72
 18   7 0.51
 18   8 0.63
 18   9 0.55
 18  10 0.72
 18  11 0.54
 18  12 0.61
 18  13 0.58
 18  14 0.48
 18  15 0.70
 18  16 0.56
 18  17 0.60
 18  18 0.91
 18  19 0.72
 18  20 0.72
 18  21 0.64
 18  22 0.49
 19   1 0.52
 19   2 0.58
 19   3 0.64
 19   4 0.29
 19   5 0.73
 19   6 0.77
 19   7 0.43
 19   8 0.65
 19   9 0.54
 19  10 0.77
 19  11 0.53
 19  12 0.66
 19  13 0.59
 19  14 0.53
 19  15 0.82
 19  16 0.57
 19  17 0.62
 19  18 0.75
 19  19 0.91
 19  20 0.70
 19  21 0.71
 19  22 0.52
 20   1 0.38
 20   2 0.43
 20   3 0.68
 20   4 0.25
 20   5 0.62
 20   6 0.69
 20   7 0.34
 20   8 0.56
 20   9 0.55
 20  10 0.70
 20  11 0.55
 20  12 0.55
 20  13 0.51
 20  14 0.44
 20  15 0.74
 20  16 0.45
 20  17 0.60
 20  18 0.73
 20  19 0.70
 20  20 0.86
 20  21 0.64
 20  22 0.45
 21   1 0.50
 21   2 0.48
 21   3 0.55
 21   4 0.27
 21   5 0.56
 21   6 0.71
 21   7 0.46
 21   8 0.66
 21   9 0.48
 21  10 0.67
 21  11 0.51
 21  12 0.59
 21  13 0.54
 21  14 0.39
 21  15 0.70
 21  16 0.54
 21  17 0.54
 21  18 0.72
 21  19 0.65
 21  20 0.63
 21  21 0.88
 21  22 0.42
 22   1 0.59
 22   2 0.68
 22   3 0.48
 22   4 0.41
 22   5 0.63
 22   6 0.64
 22   7 0.31
 22   8 0.43
 22   9 0.50
 22  10 0.64
 22  11 0.48
 22  12 0.66
 22  13 0.48
 22  14 0.65
 22  15 0.61
 22  16 0.52
 22  17 0.60
 22  18 0.54
 22  19 0.63
 22  20 0.52
 22  21 0.58
 22  22 0.76
  1   1 0.94
  1   2 0.59
  1   3 0.39
  1   4 0.44
  1   5 0.45
  1   6 0.65
  1   7 0.38
  1   8 0.44
  1   9 0.46
  1  10 0.59
  1  11 0.33
  1  12 0.64
  1  13 0.59
  1  14 0.36
  1  15 0.43
  1  16 0.40
  1  17 0.38
  1  18 0.46
  1  19 0.46
  1  20 0.35
  1  21 0.42
  1  22 0.44
  2   1 0.57
  2   2 0.92
  2   3 0.43
  2   4 0.40
  2   5 0.61
  2   6 0.53
  2   7 0.33
  2   8 0.44
  2   9 0.52
  2  10 0.57
  2  11 0.40
  2  12 0.55
  2  13 0.51
  2  14 0.66
  2  15 0.50
  2  16 0.51
  2  17 0.58
  2  18 0.43
  2  19 0.55
  2  20 0.48
  2  21 0.47
  2  22 0.60
  3   1 0.49
  3   2 0.56
  3   3 0.89
  3   4 0.35
  3   5 0.76
  3   6 0.71
  3   7 0.45
  3   8 0.60
  3   9 0.66
  3  10 0.72
  3  11 0.69
  3  12 0.61
  3  13 0.65
  3  14 0.54
  3  15 0.79
  3  16 0.62
  3  17 0.68
  3  18 0.66
  3  19 0.78
  3  20 0.79
  3  21 0.65
  3  22 0.56
  4   1 0.50
  4   2 0.55
  4   3 0.37
  4   4 0.87
  4   5 0.38
  4   6 0.38
  4   7 0.42
  4   8 0.41
  4   9 0.41
  4  10 0.43
  4  11 0.30
  4  12 0.47
  4  13 0.43
  4  14 0.30
  4  15 0.32
  4  16 0.32
  4  17 0.32
  4  18 0.35
  4  19 0.33
  4  20 0.28
  4  21 0.32
  4  22 0.56
  5   1 0.49
  5   2 0.72
  5   3 0.66
  5   4 0.31
  5   5 0.90
  5   6 0.61
  5   7 0.34
  5   8 0.54
  5   9 0.64
  5  10 0.66
  5  11 0.65
  5  12 0.61
  5  13 0.58
  5  14 0.74
  5  15 0.74
  5  16 0.69
  5  17 0.72
  5  18 0.57
  5  19 0.76
  5  20 0.70
  5  21 0.58
  5  22 0.59
  6   1 0.67
  6   2 0.61
  6   3 0.58
  6   4 0.40
  6   5 0.60
  6   6 0.88
  6   7 0.53
  6   8 0.58
  6   9 0.55
  6  10 0.77
  6  11 0.47
  6  12 0.74
  6  13 0.68
  6  14 0.48
  6  15 0.67
  6  16 0.57
  6  17 0.58
  6  18 0.67
  6  19 0.67
  6  20 0.55
  6  21 0.61
  6  22 0.50
  7   1 0.48
  7   2 0.41
  7   3 0.39
  7   4 0.38
  7   5 0.35
  7   6 0.50
  7   7 0.72
  7   8 0.63
  7   9 0.40
  7  10 0.47
  7  11 0.30
  7  12 0.42
  7  13 0.59
  7  14 0.21
  7  15 0.41
  7  16 0.31
  7  17 0.29
  7  18 0.45
  7  19 0.40
  7  20 0.33
  7  21 0.43
  7  22 0.34
  8   1 0.49
  8   2 0.46
  8   3 0.50
  8   4 0.33
  8   5 0.53
  8   6 0.58
  8   7 0.57
  8   8 0.88
  8   9 0.48
  8  10 0.60
  8  11 0.41
  8  12 0.47
  8  13 0.59
  8  14 0.34
  8  15 0.62
  8  16 0.44
  8  17 0.44
  8  18 0.57
  8  19 0.57
  8  20 0.51
  8  21 0.63
  8  22 0.40
  9   1 0.48
  9   2 0.61
  9   3 0.76
  9   4 0.37
  9   5 0.76
  9   6 0.65
  9   7 0.38
  9   8 0.57
  9   9 0.84
  9  10 0.69
  9  11 0.63
  9  12 0.62
  9  13 0.68
  9  14 0.51
  9  15 0.70
  9  16 0.49
  9  17 0.69
  9  18 0.55
  9  19 0.69
  9  20 0.67
  9  21 0.53
  9  22 0.57
 10   1 0.61
 10   2 0.58
 10   3 0.66
 10   4 0.39
 10   5 0.67
 10   6 0.86
 10   7 0.44
 10   8 0.58
 10   9 0.62
 10  10 0.96
 10  11 0.52
 10  12 0.73
 10  13 0.71
 10  14 0.46
 10  15 0.75
 10  16 0.53
 10  17 0.64
 10  18 0.73
 10  19 0.74
 10  20 0.69
 10  21 0.65
 10  22 0.55
 11   1 0.38
 11   2 0.47
 11   3 0.69
 11   4 0.27
 11   5 0.61
 11   6 0.56
 11   7 0.38
 11   8 0.53
 11   9 0.66
 11  10 0.56
 11  11 0.93
 11  12 0.53
 11  13 0.57
 11  14 0.48
 11  15 0.62
 11  16 0.58
 11  17 0.64
 11  18 0.58
 11  19 0.62
 11  20 0.72
 11  21 0.56
 11  22 0.53
 12   1 0.57
 12   2 0.66
 12   3 0.61
 12   4 0.39
 12   5 0.70
 12   6 0.70
 12   7 0.39
 12   8 0.50
 12   9 0.61
 12  10 0.71
 12  11 0.62
 12  12 0.87
 12  13 0.64
 12  14 0.64
 12  15 0.70
 12  16 0.61
 12  17 0.73
 12  18 0.61
 12  19 0.74
 12  20 0.67
 12  21 0.59
 12  22 0.61
 13   1 0.59
 13   2 0.56
 13   3 0.59
 13   4 0.42
 13   5 0.57
 13   6 0.64
 13   7 0.56
 13   8 0.57
 13   9 0.61
 13  10 0.66
 13  11 0.48
 13  12 0.62
 13  13 0.93
 13  14 0.34
 13  15 0.58
 13  16 0.44
 13  17 0.57
 13  18 0.51
 13  19 0.56
 13  20 0.48
 13  21 0.48
 13  22 0.42
 14   1 0.44
 14   2 0.69
 14   3 0.44
 14   4 0.29
 14   5 0.64
 14   6 0.52
 14   7 0.24
 14   8 0.38
 14   9 0.47
 14  10 0.59
 14  11 0.50
 14  12 0.58
 14  13 0.40
 14  14 0.87
 14  15 0.58
 14  16 0.59
 14  17 0.72
 14  18 0.54
 14  19 0.68
 14  20 0.61
 14  21 0.52
 14  22 0.61
 15   1 0.49
 15   2 0.56
 15   3 0.72
 15   4 0.30
 15   5 0.75
 15   6 0.79
 15   7 0.42
 15   8 0.65
 15   9 0.57
 15  10 0.79
 15  11 0.56
 15  12 0.65
 15  13 0.64
 15  14 0.49
 15  15 0.93
 15  16 0.58
 15  17 0.65
 15  18 0.76
 15  19 0.81
 15  20 0.78
 15  21 0.74
 15  22 0.51
 16   1 0.50
 16   2 0.57
 16   3 0.59
 16   4 0.31
 16   5 0.67
 16   6 0.72
 16   7 0.37
 16   8 0.49
 16   9 0.55
 16  10 0.72
 16  11 0.61
 16  12 0.61
 16  13 0.56
 16  14 0.60
 16  15 0.74
 16  16 0.86
 16  17 0.66
 16  18 0.65
 16  19 0.75
 16  20 0.68
 16  21 0.69
 16  22 0.55
 17   1 0.41
 17   2 0.63
 17   3 0.58
 17   4 0.29
 17   5 0.69
 17   6 0.60
 17   7 0.29
 17   8 0.44
 17   9 0.59
 17  10 0.64
 17  11 0.61
 17  12 0.64
 17  13 0.60
 17  14 0.71
 17  15 0.68
 17  16 0.64
 17  17 0.95
 17  18 0.55
 17  19 0.68
 17  20 0.68
 17  21 0.58
 17  22 0.55
 18   1 0.47
 18   2 0.53
 18   3 0.63
 18   4 0.37
 18   5 0.58
 18   6 0.72
 18   7 0.51
 18   8 0.63
 18   9 0.55
 18  10 0.72
 18  11 0.54
 18  12 0.61
 18  13 0.58
 18  14 0.48
 18  15 0.70
 18  16 0.56
 18  17 0.60
 18  18 0.91
 18  19 0.72
 18  20 0.72
 18  21 0.64
 18  22 0.49
 19   1 0.52
 19   2 0.58
 19   3 0.64
 19   4 0.29
 19   5 0.73
 19   6 0.77
 19   7 0.43
 19   8 0.65
 19   9 0.54
 19  10 0.77
 19  11 0.53
 19  12 0.66
 19  13 0.59
 19  14 0.53
 19  15 0.82
 19  16 0.57
 19  17 0.62
 19  18 0.75
 19  19 0.91
 19  20 0.70
 19  21 0.71
 19  22 0.52
 20   1 0.38
 20   2 0.43
 20   3 0.68
 20   4 0.25
 20   5 0.62
 20   6 0.69
 20   7 0.34
 20   8 0.56
 20   9 0.55
 20  10 0.70
 20  11 0.55
 20  12 0.55
 20  13 0.51
 20  14 0.44
 20  15 0.74
 20  16 0.45
 20  17 0.60
 20  18 0.73
 20  19 0.70
 20  20 0.86
 20  21 0.64
 20  22 0.45
 21   1 0.50
 21   2 0.48
 21   3 0.55
 21   4 0.27
 21   5 0.56
 21   6 0.71
 21   7 0.46
 21   8 0.66
 21   9 0.48
 21  10 0.67
 21  11 0.51
 21  12 0.59
 21  13 0.54
 21  14 0.39
 21  15 0.70
 21  16 0.54
 21  17 0.54
 21  18 0.72
 21  19 0.65
 21  20 0.63
 21  21 0.88
 21  22 0.42
 22   1 0.59
 22   2 0.68
 22   3 0.48
 22   4 0.41
 22   5 0.63
 22   6 0.64
 22   7 0.31
 22   8 0.43
 22   9 0.50
 22  10 0.64
 22  11 0.48
 22  12 0.66
 22  13 0.48
 22  14 0.65
 22  15 0.61
 22  16 0.52
 22  17 0.60
 22  18 0.54
 22  19 0.63
 22  20 0.52
 22  21 0.58
 22  22 0.76
