  1   1 1.00
  1   2 0.56
  1   3 0.45
  1   4 0.49
  1   5 0.45
  1   6 0.67
  1   7 0.47
  1   8 0.47
  1   9 0.45
  1  10 0.61
  1  11 0.36
  1  12 0.56
  1  13 0.56
  1  14 0.44
  1  15 0.47
  1  16 0.51
  1  17 0.40
  1  18 0.47
  1  19 0.51
  1  20 0.37
  1  21 0.50
  1  22 0.58
  2   1 0.56
  2   2 1.00
  2   3 0.49
  2   4 0.49
  2   5 0.67
  2   6 0.57
  2   7 0.36
  2   8 0.43
  2   9 0.55
  2  10 0.54
  2  11 0.41
  2  12 0.62
  2  13 0.51
  2  14 0.68
  2  15 0.51
  2  16 0.53
  2  17 0.59
  2  18 0.49
  2  19 0.53
  2  20 0.41
  2  21 0.45
  2  22 0.65
  3   1 0.45
  3   2 0.49
  3   3 1.00
  3   4 0.38
  3   5 0.74
  3   6 0.63
  3   7 0.42
  3   8 0.54
  3   9 0.79
  3  10 0.72
  3  11 0.74
  3  12 0.68
  3  13 0.61
  3  14 0.54
  3  15 0.77
  3  16 0.68
  3  17 0.66
  3  18 0.67
  3  19 0.71
  3  20 0.69
  3  21 0.59
  3  22 0.53
  4   1 0.49
  4   2 0.49
  4   3 0.38
  4   4 1.00
  4   5 0.38
  4   6 0.45
  4   7 0.36
  4   8 0.37
  4   9 0.41
  4  10 0.41
  4  11 0.31
  4  12 0.42
  4  13 0.42
  4  14 0.36
  4  15 0.34
  4  16 0.35
  4  17 0.33
  4  18 0.38
  4  19 0.32
  4  20 0.28
  4  21 0.31
  4  22 0.47
  5   1 0.45
  5   2 0.67
  5   3 0.74
  5   4 0.38
  5   5 1.00
  5   6 0.60
  5   7 0.35
  5   8 0.52
  5   9 0.73
  5  10 0.64
  5  11 0.66
  5  12 0.72
  5  13 0.55
  5  14 0.74
  5  15 0.71
  5  16 0.71
  5  17 0.73
  5  18 0.62
  5  19 0.70
  5  20 0.59
  5  21 0.54
  5  22 0.66
  6   1 0.67
  6   2 0.57
  6   3 0.63
  6   4 0.45
  6   5 0.60
  6   6 1.00
  6   7 0.59
  6   8 0.60
  6   9 0.58
  6  10 0.78
  6  11 0.52
  6  12 0.72
  6  13 0.69
  6  14 0.56
  6  15 0.70
  6  16 0.70
  6  17 0.59
  6  18 0.72
  6  19 0.72
  6  20 0.57
  6  21 0.67
  6  22 0.62
  7   1 0.47
  7   2 0.36
  7   3 0.42
  7   4 0.36
  7   5 0.35
  7   6 0.59
  7   7 1.00
  7   8 0.67
  7   9 0.37
  7  10 0.47
  7  11 0.35
  7  12 0.42
  7  13 0.63
  7  14 0.26
  7  15 0.46
  7  16 0.38
  7  17 0.30
  7  18 0.51
  7  19 0.46
  7  20 0.35
  7  21 0.50
  7  22 0.34
  8   1 0.47
  8   2 0.43
  8   3 0.54
  8   4 0.37
  8   5 0.52
  8   6 0.60
  8   7 0.67
  8   8 1.00
  8   9 0.51
  8  10 0.60
  8  11 0.48
  8  12 0.51
  8  13 0.59
  8  14 0.40
  8  15 0.65
  8  16 0.55
  8  17 0.46
  8  18 0.61
  8  19 0.66
  8  20 0.54
  8  21 0.69
  8  22 0.45
  9   1 0.45
  9   2 0.55
  9   3 0.79
  9   4 0.41
  9   5 0.73
  9   6 0.58
  9   7 0.37
  9   8 0.51
  9   9 1.00
  9  10 0.69
  9  11 0.68
  9  12 0.69
  9  13 0.65
  9  14 0.53
  9  15 0.69
  9  16 0.57
  9  17 0.69
  9  18 0.56
  9  19 0.64
  9  20 0.64
  9  21 0.50
  9  22 0.56
 10   1 0.61
 10   2 0.54
 10   3 0.72
 10   4 0.41
 10   5 0.64
 10   6 0.78
 10   7 0.47
 10   8 0.60
 10   9 0.69
 10  10 1.00
 10  11 0.57
 10  12 0.72
 10  13 0.68
 10  14 0.57
 10  15 0.80
 10  16 0.72
 10  17 0.66
 10  18 0.73
 10  19 0.76
 10  20 0.70
 10  21 0.69
 10  22 0.63
 11   1 0.36
 11   2 0.41
 11   3 0.74
 11   4 0.31
 11   5 0.66
 11   6 0.52
 11   7 0.35
 11   8 0.48
 11   9 0.68
 11  10 0.57
 11  11 1.00
 11  12 0.62
 11  13 0.53
 11  14 0.51
 11  15 0.62
 11  16 0.60
 11  17 0.62
 11  18 0.60
 11  19 0.58
 11  20 0.62
 11  21 0.56
 11  22 0.50
 12   1 0.56
 12   2 0.62
 12   3 0.68
 12   4 0.42
 12   5 0.72
 12   6 0.72
 12   7 0.42
 12   8 0.51
 12   9 0.69
 12  10 0.72
 12  11 0.62
 12  12 1.00
 12  13 0.62
 12  14 0.68
 12  15 0.71
 12  16 0.69
 12  17 0.74
 12  18 0.67
 12  19 0.73
 12  20 0.63
 12  21 0.61
 12  22 0.67
 13   1 0.56
 13   2 0.51
 13   3 0.61
 13   4 0.42
 13   5 0.55
 13   6 0.69
 13   7 0.63
 13   8 0.59
 13   9 0.65
 13  10 0.68
 13  11 0.53
 13  12 0.62
 13  13 1.00
 13  14 0.40
 13  15 0.62
 13  16 0.52
 13  17 0.58
 13  18 0.57
 13  19 0.57
 13  20 0.49
 13  21 0.53
 13  22 0.46
 14   1 0.44
 14   2 0.68
 14   3 0.54
 14   4 0.36
 14   5 0.74
 14   6 0.56
 14   7 0.26
 14   8 0.40
 14   9 0.53
 14  10 0.57
 14  11 0.51
 14  12 0.68
 14  13 0.40
 14  14 1.00
 14  15 0.57
 14  16 0.64
 14  17 0.72
 14  18 0.59
 14  19 0.62
 14  20 0.54
 14  21 0.49
 14  22 0.72
 15   1 0.47
 15   2 0.51
 15   3 0.77
 15   4 0.34
 15   5 0.71
 15   6 0.70
 15   7 0.46
 15   8 0.65
 15   9 0.69
 15  10 0.80
 15  11 0.62
 15  12 0.71
 15  13 0.62
 15  14 0.57
 15  15 1.00
 15  16 0.72
 15  17 0.67
 15  18 0.76
 15  19 0.82
 15  20 0.81
 15  21 0.74
 15  22 0.61
 16   1 0.51
 16   2 0.53
 16   3 0.68
 16   4 0.35
 16   5 0.71
 16   6 0.70
 16   7 0.38
 16   8 0.55
 16   9 0.57
 16  10 0.72
 16  11 0.60
 16  12 0.69
 16  13 0.52
 16  14 0.64
 16  15 0.72
 16  16 1.00
 16  17 0.65
 16  18 0.70
 16  19 0.73
 16  20 0.61
 16  21 0.66
 16  22 0.60
 17   1 0.40
 17   2 0.59
 17   3 0.66
 17   4 0.33
 17   5 0.73
 17   6 0.59
 17   7 0.30
 17   8 0.46
 17   9 0.69
 17  10 0.66
 17  11 0.62
 17  12 0.74
 17  13 0.58
 17  14 0.72
 17  15 0.67
 17  16 0.65
 17  17 1.00
 17  18 0.58
 17  19 0.63
 17  20 0.59
 17  21 0.56
 17  22 0.63
 18   1 0.47
 18   2 0.49
 18   3 0.67
 18   4 0.38
 18   5 0.62
 18   6 0.72
 18   7 0.51
 18   8 0.61
 18   9 0.56
 18  10 0.73
 18  11 0.60
 18  12 0.67
 18  13 0.57
 18  14 0.59
 18  15 0.76
 18  16 0.70
 18  17 0.58
 18  18 1.00
 18  19 0.78
 18  20 0.72
 18  21 0.73
 18  22 0.53
 19   1 0.51
 19   2 0.53
 19   3 0.71
 19   4 0.32
 19   5 0.70
 19   6 0.72
 19   7 0.46
 19   8 0.66
 19   9 0.64
 19  10 0.76
 19  11 0.58
 19  12 0.73
 19  13 0.57
 19  14 0.62
 19  15 0.82
 19  16 0.73
 19  17 0.63
 19  18 0.78
 19  19 1.00
 19  20 0.70
 19  21 0.73
 19  22 0.62
 20   1 0.37
 20   2 0.41
 20   3 0.69
 20   4 0.28
 20   5 0.59
 20   6 0.57
 20   7 0.35
 20   8 0.54
 20   9 0.64
 20  10 0.70
 20  11 0.62
 20  12 0.63
 20  13 0.49
 20  14 0.54
 20  15 0.81
 20  16 0.61
 20  17 0.59
 20  18 0.72
 20  19 0.70
 20  20 1.00
 20  21 0.65
 20  22 0.51
 21   1 0.50
 21   2 0.45
 21   3 0.59
 21   4 0.31
 21   5 0.54
 21   6 0.67
 21   7 0.50
 21   8 0.69
 21   9 0.50
 21  10 0.69
 21  11 0.56
 21  12 0.61
 21  13 0.53
 21  14 0.49
 21  15 0.74
 21  16 0.66
 21  17 0.56
 21  18 0.73
 21  19 0.73
 21  20 0.65
 21  21 1.00
 21  22 0.55
 22   1 0.58
 22   2 0.65
 22   3 0.53
 22   4 0.47
 22   5 0.66
 22   6 0.62
 22   7 0.34
 22   8 0.45
 22   9 0.56
 22  10 0.63
 22  11 0.50
 22  12 0.67
 22  13 0.46
 22  14 0.72
 22  15 0.61
 22  16 0.60
 22  17 0.63
 22  18 0.53
 22  19 0.62
 22  20 0.51
 22  21 0.55
 22  22 1.00
  1   1 1.00
  1   2 0.56
  1   3 0.45
  1   4 0.49
  1   5 0.45
  1   6 0.66
  1   7 0.47
  1   8 0.46
  1   9 0.44
  1  10 0.61
  1  11 0.35
  1  12 0.55
  1  13 0.55
  1  14 0.44
  1  15 0.47
  1  16 0.50
  1  17 0.40
  1  18 0.46
  1  19 0.50
  1  20 0.36
  1  21 0.50
  1  22 0.58
  2   1 0.56
  2   2 1.00
  2   3 0.49
  2   4 0.49
  2   5 0.67
  2   6 0.57
  2   7 0.36
  2   8 0.42
  2   9 0.55
  2  10 0.53
  2  11 0.40
  2  12 0.61
  2  13 0.51
  2  14 0.67
  2  15 0.51
  2  16 0.53
  2  17 0.59
  2  18 0.48
  2  19 0.52
  2  20 0.40
  2  21 0.44
  2  22 0.65
  3   1 0.45
  3   2 0.49
  3   3 1.00
  3   4 0.37
  3   5 0.73
  3   6 0.63
  3   7 0.42
  3   8 0.54
  3   9 0.79
  3  10 0.72
  3  11 0.74
  3  12 0.68
  3  13 0.61
  3  14 0.54
  3  15 0.77
  3  16 0.68
  3  17 0.66
  3  18 0.66
  3  19 0.71
  3  20 0.69
  3  21 0.58
  3  22 0.52
  4   1 0.49
  4   2 0.49
  4   3 0.37
  4   4 1.00
  4   5 0.38
  4   6 0.44
  4   7 0.35
  4   8 0.36
  4   9 0.40
  4  10 0.40
  4  11 0.30
  4  12 0.42
  4  13 0.41
  4  14 0.35
  4  15 0.33
  4  16 0.35
  4  17 0.32
  4  18 0.37
  4  19 0.31
  4  20 0.27
  4  21 0.31
  4  22 0.46
  5   1 0.45
  5   2 0.67
  5   3 0.73
  5   4 0.38
  5   5 1.00
  5   6 0.60
  5   7 0.34
  5   8 0.52
  5   9 0.73
  5  10 0.64
  5  11 0.65
  5  12 0.71
  5  13 0.54
  5  14 0.74
  5  15 0.70
  5  16 0.70
  5  17 0.72
  5  18 0.62
  5  19 0.69
  5  20 0.59
  5  21 0.53
  5  22 0.66
  6   1 0.66
  6   2 0.57
  6   3 0.63
  6   4 0.44
  6   5 0.60
  6   6 1.00
  6   7 0.59
  6   8 0.59
  6   9 0.58
  6  10 0.77
  6  11 0.51
  6  12 0.71
  6  13 0.69
  6  14 0.55
  6  15 0.70
  6  16 0.70
  6  17 0.59
  6  18 0.72
  6  19 0.72
  6  20 0.57
  6  21 0.67
  6  22 0.62
  7   1 0.47
  7   2 0.36
  7   3 0.42
  7   4 0.35
  7   5 0.34
  7   6 0.59
  7   7 1.00
  7   8 0.66
  7   9 0.36
  7  10 0.47
  7  11 0.35
  7  12 0.41
  7  13 0.62
  7  14 0.26
  7  15 0.45
  7  16 0.37
  7  17 0.29
  7  18 0.50
  7  19 0.45
  7  20 0.35
  7  21 0.50
  7  22 0.33
  8   1 0.46
  8   2 0.42
  8   3 0.54
  8   4 0.36
  8   5 0.52
  8   6 0.59
  8   7 0.66
  8   8 1.00
  8   9 0.50
  8  10 0.60
  8  11 0.47
  8  12 0.50
  8  13 0.58
  8  14 0.39
  8  15 0.64
  8  16 0.54
  8  17 0.45
  8  18 0.60
  8  19 0.66
  8  20 0.53
  8  21 0.69
  8  22 0.44
  9   1 0.44
  9   2 0.55
  9   3 0.79
  9   4 0.40
  9   5 0.73
  9   6 0.58
  9   7 0.36
  9   8 0.50
  9   9 1.00
  9  10 0.68
  9  11 0.68
  9  12 0.69
  9  13 0.65
  9  14 0.53
  9  15 0.69
  9  16 0.57
  9  17 0.69
  9  18 0.56
  9  19 0.64
  9  20 0.63
  9  21 0.49
  9  22 0.55
 10   1 0.61
 10   2 0.53
 10   3 0.72
 10   4 0.40
 10   5 0.64
 10   6 0.77
 10   7 0.47
 10   8 0.60
 10   9 0.68
 10  10 1.00
 10  11 0.57
 10  12 0.71
 10  13 0.68
 10  14 0.57
 10  15 0.80
 10  16 0.71
 10  17 0.65
 10  18 0.72
 10  19 0.76
 10  20 0.70
 10  21 0.69
 10  22 0.63
 11   1 0.35
 11   2 0.40
 11   3 0.74
 11   4 0.30
 11   5 0.65
 11   6 0.51
 11   7 0.35
 11   8 0.47
 11   9 0.68
 11  10 0.57
 11  11 1.00
 11  12 0.62
 11  13 0.53
 11  14 0.50
 11  15 0.61
 11  16 0.60
 11  17 0.61
 11  18 0.59
 11  19 0.57
 11  20 0.61
 11  21 0.56
 11  22 0.49
 12   1 0.55
 12   2 0.61
 12   3 0.68
 12   4 0.42
 12   5 0.71
 12   6 0.71
 12   7 0.41
 12   8 0.50
 12   9 0.69
 12  10 0.71
 12  11 0.62
 12  12 1.00
 12  13 0.61
 12  14 0.67
 12  15 0.70
 12  16 0.69
 12  17 0.74
 12  18 0.67
 12  19 0.73
 12  20 0.62
 12  21 0.60
 12  22 0.67
 13   1 0.55
 13   2 0.51
 13   3 0.61
 13   4 0.41
 13   5 0.54
 13   6 0.69
 13   7 0.62
 13   8 0.58
 13   9 0.65
 13  10 0.68
 13  11 0.53
 13  12 0.61
 13  13 1.00
 13  14 0.39
 13  15 0.61
 13  16 0.52
 13  17 0.57
 13  18 0.56
 13  19 0.57
 13  20 0.49
 13  21 0.53
 13  22 0.46
 14   1 0.44
 14   2 0.67
 14   3 0.54
 14   4 0.35
 14   5 0.74
 14   6 0.55
 14   7 0.26
 14   8 0.39
 14   9 0.53
 14  10 0.57
 14  11 0.50
 14  12 0.67
 14  13 0.39
 14  14 1.00
 14  15 0.57
 14  16 0.63
 14  17 0.72
 14  18 0.58
 14  19 0.62
 14  20 0.53
 14  21 0.48
 14  22 0.72
 15   1 0.47
 15   2 0.51
 15   3 0.77
 15   4 0.33
 15   5 0.70
 15   6 0.70
 15   7 0.45
 15   8 0.64
 15   9 0.69
 15  10 0.80
 15  11 0.61
 15  12 0.70
 15  13 0.61
 15  14 0.57
 15  15 1.00
 15  16 0.72
 15  17 0.67
 15  18 0.75
 15  19 0.82
 15  20 0.80
 15  21 0.74
 15  22 0.60
 16   1 0.50
 16   2 0.53
 16   3 0.68
 16   4 0.35
 16   5 0.70
 16   6 0.70
 16   7 0.37
 16   8 0.54
 16   9 0.57
 16  10 0.71
 16  11 0.60
 16  12 0.69
 16  13 0.52
 16  14 0.63
 16  15 0.72
 16  16 1.00
 16  17 0.65
 16  18 0.70
 16  19 0.73
 16  20 0.61
 16  21 0.66
 16  22 0.60
 17   1 0.40
 17   2 0.59
 17   3 0.66
 17   4 0.32
 17   5 0.72
 17   6 0.59
 17   7 0.29
 17   8 0.45
 17   9 0.69
 17  10 0.65
 17  11 0.61
 17  12 0.74
 17  13 0.57
 17  14 0.72
 17  15 0.67
 17  16 0.65
 17  17 1.00
 17  18 0.58
 17  19 0.63
 17  20 0.59
 17  21 0.56
 17  22 0.63
 18   1 0.46
 18   2 0.48
 18   3 0.66
 18   4 0.37
 18   5 0.62
 18   6 0.72
 18   7 0.50
 18   8 0.60
 18   9 0.56
 18  10 0.72
 18  11 0.59
 18  12 0.67
 18  13 0.56
 18  14 0.58
 18  15 0.75
 18  16 0.70
 18  17 0.58
 18  18 1.00
 18  19 0.77
 18  20 0.71
 18  21 0.73
 18  22 0.53
 19   1 0.50
 19   2 0.52
 19   3 0.71
 19   4 0.31
 19   5 0.69
 19   6 0.72
 19   7 0.45
 19   8 0.66
 19   9 0.64
 19  10 0.76
 19  11 0.57
 19  12 0.73
 19  13 0.57
 19  14 0.62
 19  15 0.82
 19  16 0.73
 19  17 0.63
 19  18 0.77
 19  19 1.00
 19  20 0.70
 19  21 0.72
 19  22 0.62
 20   1 0.36
 20   2 0.40
 20   3 0.69
 20   4 0.27
 20   5 0.59
 20   6 0.57
 20   7 0.35
 20   8 0.53
 20   9 0.63
 20  10 0.70
 20  11 0.61
 20  12 0.62
 20  13 0.49
 20  14 0.53
 20  15 0.80
 20  16 0.61
 20  17 0.59
 20  18 0.71
 20  19 0.70
 20  20 1.00
 20  21 0.65
 20  22 0.51
 21   1 0.50
 21   2 0.44
 21   3 0.58
 21   4 0.31
 21   5 0.53
 21   6 0.67
 21   7 0.50
 21   8 0.69
 21   9 0.49
 21  10 0.69
 21  11 0.56
 21  12 0.60
 21  13 0.53
 21  14 0.48
 21  15 0.74
 21  16 0.66
 21  17 0.56
 21  18 0.73
 21  19 0.72
 21  20 0.65
 21  21 1.00
 21  22 0.55
 22   1 0.58
 22   2 0.65
 22   3 0.52
 22   4 0.46
 22   5 0.66
 22   6 0.62
 22   7 0.33
 22   8 0.44
 22   9 0.55
 22  10 0.63
 22  11 0.49
 22  12 0.67
 22  13 0.46
 22  14 0.72
 22  15 0.60
 22  16 0.60
 22  17 0.63
 22  18 0.53
 22  19 0.62
 22  20 0.51
 22  21 0.55
 22  22 1.00
